Node Number	X Location (m)	Y Location (m)	Z Location (m)	Equivalent (von-Mises) Stress (Pa)
1	0.95	-1.7347e-018	5.e-002	1.1091e+007
2	0.9	9.8608e-032	5.e-002	8.8108e+006
3	0.85	2.4652e-031	5.e-002	8.1729e+006
4	0.8	3.4694e-018	5.e-002	8.1059e+006
5	0.75	-3.6978e-032	5.e-002	8.0792e+006
6	0.7	0.	5.e-002	8.0713e+006
7	0.65	2.4652e-032	5.e-002	8.0682e+006
8	0.6	0.	5.e-002	8.0667e+006
9	0.55	2.4652e-032	5.e-002	8.0661e+006
10	0.5	-3.4694e-018	5.e-002	8.0658e+006
11	0.45	-3.4694e-018	5.e-002	8.0657e+006
12	0.4	5.5467e-032	5.e-002	8.0659e+006
13	0.35	0.	5.e-002	8.0647e+006
14	0.3	0.	5.e-002	8.0699e+006
15	0.25	-6.163e-033	5.e-002	8.0489e+006
16	0.2	-1.7347e-018	5.e-002	8.1572e+006
17	0.15	9.2445e-033	5.e-002	8.0797e+006
18	0.1	-1.7347e-018	5.e-002	1.5704e+007
19	5.e-002	-3.0815e-033	5.e-002	4.3703e+007
20	5.e-002	-6.163e-033	0.	5.07e+007
21	0.1	-3.4694e-018	0.	1.3165e+007
22	0.15	1.8489e-032	0.	1.0405e+007
23	0.2	-3.4694e-018	0.	1.03e+007
24	0.25	-1.2326e-032	0.	1.0221e+007
25	0.3	0.	0.	1.0221e+007
26	0.35	0.	0.	1.0219e+007
27	0.4	1.1093e-031	0.	1.0219e+007
28	0.45	-6.9389e-018	0.	1.0219e+007
29	0.5	-6.9389e-018	0.	1.0219e+007
30	0.55	4.9304e-032	0.	1.0219e+007
31	0.6	0.	0.	1.0218e+007
32	0.65	4.9304e-032	0.	1.0217e+007
33	0.7	0.	0.	1.0215e+007
34	0.75	-7.3956e-032	0.	1.0208e+007
35	0.8	6.9389e-018	0.	1.0209e+007
36	0.85	4.9304e-031	0.	1.0191e+007
37	0.9	1.9722e-031	0.	1.068e+007
38	0.95	-3.4694e-018	0.	1.3696e+007
39	0.95	0.	0.1	1.3696e+007
40	0.9	0.	0.1	1.068e+007
41	0.85	0.	0.1	1.0191e+007
42	0.8	0.	0.1	1.0209e+007
43	0.75	0.	0.1	1.0208e+007
44	0.7	0.	0.1	1.0215e+007
45	0.65	0.	0.1	1.0217e+007
46	0.6	0.	0.1	1.0218e+007
47	0.55	0.	0.1	1.0219e+007
48	0.5	0.	0.1	1.0219e+007
49	0.45	0.	0.1	1.0219e+007
50	0.4	0.	0.1	1.0219e+007
51	0.35	0.	0.1	1.0219e+007
52	0.3	0.	0.1	1.0221e+007
53	0.25	0.	0.1	1.0221e+007
54	0.2	0.	0.1	1.03e+007
55	0.15	0.	0.1	1.0405e+007
56	0.1	0.	0.1	1.3165e+007
57	5.e-002	0.	0.1	5.07e+007
58	5.e-002	-5.e-002	0.1	1.8935e+008
59	0.1	-5.e-002	0.1	1.5302e+008
60	0.15	-5.e-002	0.1	1.556e+008
61	0.2	-5.e-002	0.1	1.4411e+008
62	0.25	-5.e-002	0.1	1.3561e+008
63	0.3	-5.e-002	0.1	1.2648e+008
64	0.35	-5.e-002	0.1	1.1751e+008
65	0.4	-5.e-002	0.1	1.085e+008
66	0.45	-5.e-002	0.1	9.9507e+007
67	0.5	-5.e-002	0.1	9.0507e+007
68	0.55	-5.e-002	0.1	8.1509e+007
69	0.6	-5.e-002	0.1	7.2511e+007
70	0.65	-5.e-002	0.1	6.3513e+007
71	0.7	-5.e-002	0.1	5.4515e+007
72	0.75	-5.e-002	0.1	4.5519e+007
73	0.8	-5.e-002	0.1	3.6511e+007
74	0.85	-5.e-002	0.1	2.7526e+007
75	0.9	-5.e-002	0.1	1.8308e+007
76	0.95	-5.e-002	0.1	6.6177e+006
77	1.	-5.e-002	0.1	2.7421e+006
78	1.	0.	0.1	9.2046e+006
79	1.	5.e-002	0.1	3.2266e+007
80	0.95	5.e-002	0.1	1.0891e+007
81	0.9	5.e-002	0.1	1.8084e+007
82	0.85	5.e-002	0.1	2.7057e+007
83	0.8	5.e-002	0.1	3.6028e+007
84	0.75	5.e-002	0.1	4.5017e+007
85	0.7	5.e-002	0.1	5.4002e+007
86	0.65	5.e-002	0.1	6.2997e+007
87	0.6	5.e-002	0.1	7.1993e+007
88	0.55	5.e-002	0.1	8.099e+007
89	0.5	5.e-002	0.1	8.9988e+007
90	0.45	5.e-002	0.1	9.8987e+007
91	0.4	5.e-002	0.1	1.0799e+008
92	0.35	5.e-002	0.1	1.1698e+008
93	0.3	5.e-002	0.1	1.26e+008
94	0.25	5.e-002	0.1	1.3494e+008
95	0.2	5.e-002	0.1	1.4417e+008
96	0.15	5.e-002	0.1	1.5219e+008
97	0.1	5.e-002	0.1	1.6724e+008
98	5.e-002	5.e-002	0.1	1.931e+008
99	0.	5.e-002	0.1	2.996e+008
100	0.	0.	0.1	2.4947e+008
101	0.	-5.e-002	0.1	3.7658e+008
102	0.	0.	5.e-002	2.1184e+008
103	0.	0.	0.	2.4947e+008
104	0.	-5.e-002	0.	3.7658e+008
105	0.	-5.e-002	5.e-002	2.6034e+008
106	0.	5.e-002	0.	2.996e+008
107	0.	5.e-002	5.e-002	2.9084e+008
108	0.95	5.e-002	5.e-002	1.0591e+007
109	0.9	5.e-002	5.e-002	1.6834e+007
110	0.85	5.e-002	5.e-002	2.5461e+007
111	0.8	5.e-002	5.e-002	3.4668e+007
112	0.75	5.e-002	5.e-002	4.3661e+007
113	0.7	5.e-002	5.e-002	5.2671e+007
114	0.65	5.e-002	5.e-002	6.167e+007
115	0.6	5.e-002	5.e-002	7.0671e+007
116	0.55	5.e-002	5.e-002	7.967e+007
117	0.5	5.e-002	5.e-002	8.867e+007
118	0.45	5.e-002	5.e-002	9.767e+007
119	0.4	5.e-002	5.e-002	1.0667e+008
120	0.35	5.e-002	5.e-002	1.1567e+008
121	0.3	5.e-002	5.e-002	1.2466e+008
122	0.25	5.e-002	5.e-002	1.3371e+008
123	0.2	5.e-002	5.e-002	1.4258e+008
124	0.15	5.e-002	5.e-002	1.5181e+008
125	0.1	5.e-002	5.e-002	1.5925e+008
126	5.e-002	5.e-002	5.e-002	1.6908e+008
127	5.e-002	5.e-002	0.	1.931e+008
128	0.1	5.e-002	0.	1.6724e+008
129	0.15	5.e-002	0.	1.5219e+008
130	0.2	5.e-002	0.	1.4417e+008
131	0.25	5.e-002	0.	1.3494e+008
132	0.3	5.e-002	0.	1.26e+008
133	0.35	5.e-002	0.	1.1698e+008
134	0.4	5.e-002	0.	1.0799e+008
135	0.45	5.e-002	0.	9.8987e+007
136	0.5	5.e-002	0.	8.9988e+007
137	0.55	5.e-002	0.	8.099e+007
138	0.6	5.e-002	0.	7.1993e+007
139	0.65	5.e-002	0.	6.2997e+007
140	0.7	5.e-002	0.	5.4002e+007
141	0.75	5.e-002	0.	4.5017e+007
142	0.8	5.e-002	0.	3.6028e+007
143	0.85	5.e-002	0.	2.7057e+007
144	0.9	5.e-002	0.	1.8084e+007
145	0.95	5.e-002	0.	1.0891e+007
146	1.	5.e-002	0.	3.2266e+007
147	1.	5.e-002	5.e-002	3.286e+007
148	1.	0.	5.e-002	9.0869e+006
149	1.	0.	0.	9.2046e+006
150	1.	-5.e-002	0.	2.7421e+006
151	1.	-5.e-002	5.e-002	2.3533e+006
152	0.95	-5.e-002	5.e-002	6.5028e+006
153	0.9	-5.e-002	5.e-002	1.8706e+007
154	0.85	-5.e-002	5.e-002	2.7959e+007
155	0.8	-5.e-002	5.e-002	3.6887e+007
156	0.75	-5.e-002	5.e-002	4.5884e+007
157	0.7	-5.e-002	5.e-002	5.4877e+007
158	0.65	-5.e-002	5.e-002	6.3875e+007
159	0.6	-5.e-002	5.e-002	7.2874e+007
160	0.55	-5.e-002	5.e-002	8.1873e+007
161	0.5	-5.e-002	5.e-002	9.0872e+007
162	0.45	-5.e-002	5.e-002	9.9871e+007
163	0.4	-5.e-002	5.e-002	1.0887e+008
164	0.35	-5.e-002	5.e-002	1.1787e+008
165	0.3	-5.e-002	5.e-002	1.2688e+008
166	0.25	-5.e-002	5.e-002	1.3585e+008
167	0.2	-5.e-002	5.e-002	1.4491e+008
168	0.15	-5.e-002	5.e-002	1.5415e+008
169	0.1	-5.e-002	5.e-002	1.6646e+008
170	5.e-002	-5.e-002	5.e-002	2.1094e+008
171	0.95	-5.e-002	0.	6.6177e+006
172	0.9	-5.e-002	0.	1.8308e+007
173	0.85	-5.e-002	0.	2.7526e+007
174	0.8	-5.e-002	0.	3.6511e+007
175	0.75	-5.e-002	0.	4.5519e+007
176	0.7	-5.e-002	0.	5.4515e+007
177	0.65	-5.e-002	0.	6.3513e+007
178	0.6	-5.e-002	0.	7.2511e+007
179	0.55	-5.e-002	0.	8.1509e+007
180	0.5	-5.e-002	0.	9.0507e+007
181	0.45	-5.e-002	0.	9.9507e+007
182	0.4	-5.e-002	0.	1.085e+008
183	0.35	-5.e-002	0.	1.1751e+008
184	0.3	-5.e-002	0.	1.2648e+008
185	0.25	-5.e-002	0.	1.3561e+008
186	0.2	-5.e-002	0.	1.4411e+008
187	0.15	-5.e-002	0.	1.556e+008
188	0.1	-5.e-002	0.	1.5302e+008
189	5.e-002	-5.e-002	0.	1.8935e+008
190	0.925	-8.6736e-019	5.e-002	9.8299e+006
191	0.95	-2.6021e-018	2.5e-002	1.2386e+007
192	0.95	-8.6736e-019	7.5e-002	1.2386e+007
193	0.95	2.5e-002	5.e-002	4.7874e+006
194	0.975	-8.6736e-019	5.e-002	7.0453e+006
195	0.95	-2.5e-002	5.e-002	7.6934e+006
196	0.875	1.7256e-031	5.e-002	8.4904e+006
197	0.9	1.4791e-031	2.5e-002	9.7154e+006
198	0.9	4.9304e-032	7.5e-002	9.7154e+006
199	0.9	2.5e-002	5.e-002	9.3662e+006
200	0.9	-2.5e-002	5.e-002	1.0671e+007
201	0.825	1.7347e-018	5.e-002	8.1394e+006
202	0.85	3.6978e-031	2.5e-002	9.1533e+006
203	0.85	1.2326e-031	7.5e-002	9.1533e+006
204	0.85	2.5e-002	5.e-002	1.3496e+007
205	0.85	-2.5e-002	5.e-002	1.474e+007
206	0.775	1.7347e-018	5.e-002	8.0926e+006
207	0.8	5.2042e-018	2.5e-002	9.132e+006
208	0.8	1.7347e-018	7.5e-002	9.132e+006
209	0.8	2.5e-002	5.e-002	1.7883e+007
210	0.8	-2.5e-002	5.e-002	1.9031e+007
211	0.725	-1.8489e-032	5.e-002	8.0753e+006
212	0.75	-5.5467e-032	2.5e-002	9.119e+006
213	0.75	-1.8489e-032	7.5e-002	9.119e+006
214	0.75	2.5e-002	5.e-002	2.2266e+007
215	0.75	-2.5e-002	5.e-002	2.3415e+007
216	0.675	1.2326e-032	5.e-002	8.0697e+006
217	0.7	0.	2.5e-002	9.1189e+006
218	0.7	0.	7.5e-002	9.1189e+006
219	0.7	2.5e-002	5.e-002	2.6694e+007
220	0.7	-2.5e-002	5.e-002	2.7837e+007
221	0.625	1.2326e-032	5.e-002	8.0674e+006
222	0.65	3.6978e-032	2.5e-002	9.1187e+006
223	0.65	1.2326e-032	7.5e-002	9.1187e+006
224	0.65	2.5e-002	5.e-002	3.1139e+007
225	0.65	-2.5e-002	5.e-002	3.2283e+007
226	0.575	1.2326e-032	5.e-002	8.0664e+006
227	0.6	0.	2.5e-002	9.1187e+006
228	0.6	0.	7.5e-002	9.1187e+006
229	0.6	2.5e-002	5.e-002	3.5598e+007
230	0.6	-2.5e-002	5.e-002	3.6743e+007
231	0.525	-1.7347e-018	5.e-002	8.066e+006
232	0.55	3.6978e-032	2.5e-002	9.1187e+006
233	0.55	1.2326e-032	7.5e-002	9.1187e+006
234	0.55	2.5e-002	5.e-002	4.0065e+007
235	0.55	-2.5e-002	5.e-002	4.1212e+007
236	0.475	-3.4694e-018	5.e-002	8.0658e+006
237	0.5	-5.2042e-018	2.5e-002	9.1187e+006
238	0.5	-1.7347e-018	7.5e-002	9.1187e+006
239	0.5	2.5e-002	5.e-002	4.4539e+007
240	0.5	-2.5e-002	5.e-002	4.5687e+007
241	0.425	-1.7347e-018	5.e-002	8.0658e+006
242	0.45	-5.2042e-018	2.5e-002	9.1187e+006
243	0.45	-1.7347e-018	7.5e-002	9.1187e+006
244	0.45	2.5e-002	5.e-002	4.9018e+007
245	0.45	-2.5e-002	5.e-002	5.0166e+007
246	0.375	2.7733e-032	5.e-002	8.0653e+006
247	0.4	8.32e-032	2.5e-002	9.1188e+006
248	0.4	2.7733e-032	7.5e-002	9.1188e+006
249	0.4	2.5e-002	5.e-002	5.3499e+007
250	0.4	-2.5e-002	5.e-002	5.465e+007
251	0.325	0.	5.e-002	8.0673e+006
252	0.35	0.	2.5e-002	9.1183e+006
253	0.35	0.	7.5e-002	9.1183e+006
254	0.35	2.5e-002	5.e-002	5.799e+007
255	0.35	-2.5e-002	5.e-002	5.913e+007
256	0.275	-3.0815e-033	5.e-002	8.0592e+006
257	0.3	0.	2.5e-002	9.1214e+006
258	0.3	0.	7.5e-002	9.1214e+006
259	0.3	2.5e-002	5.e-002	6.2454e+007
260	0.3	-2.5e-002	5.e-002	6.3638e+007
261	0.225	-8.6736e-019	5.e-002	8.1004e+006
262	0.25	-9.2445e-033	2.5e-002	9.1136e+006
263	0.25	-3.0815e-033	7.5e-002	9.1136e+006
264	0.25	2.5e-002	5.e-002	6.7029e+007
265	0.25	-2.5e-002	5.e-002	6.8052e+007
266	0.175	-8.6736e-019	5.e-002	8.0598e+006
267	0.2	-2.6021e-018	2.5e-002	9.191e+006
268	0.2	-8.6736e-019	7.5e-002	9.191e+006
269	0.2	2.5e-002	5.e-002	7.1238e+007
270	0.2	-2.5e-002	5.e-002	7.2795e+007
271	0.125	-8.6736e-019	5.e-002	1.0523e+007
272	0.15	1.3867e-032	2.5e-002	9.22e+006
273	0.15	4.6222e-033	7.5e-002	9.22e+006
274	0.15	2.5e-002	5.e-002	7.6844e+007
275	0.15	-2.5e-002	5.e-002	7.6394e+007
276	7.5e-002	-8.6736e-019	5.e-002	2.9545e+007
277	0.1	-2.6021e-018	2.5e-002	1.319e+007
278	0.1	-8.6736e-019	7.5e-002	1.319e+007
279	0.1	2.5e-002	5.e-002	7.3928e+007
280	0.1	-2.5e-002	5.e-002	8.922e+007
281	5.e-002	-4.6222e-033	2.5e-002	3.9058e+007
282	5.e-002	-1.5407e-033	7.5e-002	3.9058e+007
283	2.5e-002	-1.5407e-033	5.e-002	8.6615e+007
284	5.e-002	2.5e-002	5.e-002	6.9892e+007
285	5.e-002	-2.5e-002	5.e-002	1.222e+008
286	7.5e-002	-1.7347e-018	0.	2.6146e+007
287	2.5e-002	-3.0815e-033	0.	1.0204e+008
288	5.e-002	2.5e-002	0.	9.7299e+007
289	5.e-002	-2.5e-002	0.	1.0958e+008
290	0.125	-1.7347e-018	0.	1.1249e+007
291	0.1	2.5e-002	0.	8.3272e+007
292	0.1	-2.5e-002	0.	7.732e+007
293	0.175	-1.7347e-018	0.	1.0316e+007
294	0.15	2.5e-002	0.	7.7047e+007
295	0.15	-2.5e-002	0.	7.7301e+007
296	0.225	-1.7347e-018	0.	1.0257e+007
297	0.2	2.5e-002	0.	7.2977e+007
298	0.2	-2.5e-002	0.	7.1625e+007
299	0.275	-6.163e-033	0.	1.0221e+007
300	0.25	2.5e-002	0.	6.8437e+007
301	0.25	-2.5e-002	0.	6.7329e+007
302	0.325	0.	0.	1.022e+007
303	0.3	2.5e-002	0.	6.3961e+007
304	0.3	-2.5e-002	0.	6.2807e+007
305	0.375	5.5467e-032	0.	1.0219e+007
306	0.35	2.5e-002	0.	5.9481e+007
307	0.35	-2.5e-002	0.	5.8334e+007
308	0.425	-3.4694e-018	0.	1.0219e+007
309	0.4	2.5e-002	0.	5.5004e+007
310	0.4	-2.5e-002	0.	5.3858e+007
311	0.475	-6.9389e-018	0.	1.0219e+007
312	0.45	2.5e-002	0.	5.0532e+007
313	0.45	-2.5e-002	0.	4.9387e+007
314	0.525	-3.4694e-018	0.	1.0219e+007
315	0.5	2.5e-002	0.	4.6065e+007
316	0.5	-2.5e-002	0.	4.4922e+007
317	0.575	2.4652e-032	0.	1.0218e+007
318	0.55	2.5e-002	0.	4.1606e+007
319	0.55	-2.5e-002	0.	4.0464e+007
320	0.625	2.4652e-032	0.	1.0218e+007
321	0.6	2.5e-002	0.	3.7156e+007
322	0.6	-2.5e-002	0.	3.6017e+007
323	0.675	2.4652e-032	0.	1.0216e+007
324	0.65	2.5e-002	0.	3.2721e+007
325	0.65	-2.5e-002	0.	3.1584e+007
326	0.725	-3.6978e-032	0.	1.0211e+007
327	0.7	2.5e-002	0.	2.8306e+007
328	0.7	-2.5e-002	0.	2.7172e+007
329	0.775	3.4694e-018	0.	1.0208e+007
330	0.75	2.5e-002	0.	2.3926e+007
331	0.75	-2.5e-002	0.	2.2795e+007
332	0.825	3.4694e-018	0.	1.02e+007
333	0.8	2.5e-002	0.	1.9603e+007
334	0.8	-2.5e-002	0.	1.846e+007
335	0.875	3.4513e-031	0.	1.0432e+007
336	0.85	2.5e-002	0.	1.5399e+007
337	0.85	-2.5e-002	0.	1.4215e+007
338	0.925	-1.7347e-018	0.	1.1953e+007
339	0.9	2.5e-002	0.	1.1135e+007
340	0.9	-2.5e-002	0.	1.0396e+007
341	0.95	2.5e-002	0.	6.1833e+006
342	0.975	-1.7347e-018	0.	8.9471e+006
343	0.95	-2.5e-002	0.	9.0719e+006
344	0.925	0.	0.1	1.1953e+007
345	0.95	-2.5e-002	0.1	9.0719e+006
346	0.975	0.	0.1	8.9471e+006
347	0.95	2.5e-002	0.1	6.1833e+006
348	0.875	0.	0.1	1.0432e+007
349	0.9	-2.5e-002	0.1	1.0396e+007
350	0.9	2.5e-002	0.1	1.1135e+007
351	0.825	0.	0.1	1.02e+007
352	0.85	-2.5e-002	0.1	1.4215e+007
353	0.85	2.5e-002	0.1	1.5399e+007
354	0.775	0.	0.1	1.0208e+007
355	0.8	-2.5e-002	0.1	1.846e+007
356	0.8	2.5e-002	0.1	1.9603e+007
357	0.725	0.	0.1	1.0211e+007
358	0.75	-2.5e-002	0.1	2.2795e+007
359	0.75	2.5e-002	0.1	2.3926e+007
360	0.675	0.	0.1	1.0216e+007
361	0.7	-2.5e-002	0.1	2.7172e+007
362	0.7	2.5e-002	0.1	2.8306e+007
363	0.625	0.	0.1	1.0218e+007
364	0.65	-2.5e-002	0.1	3.1584e+007
365	0.65	2.5e-002	0.1	3.2721e+007
366	0.575	0.	0.1	1.0218e+007
367	0.6	-2.5e-002	0.1	3.6017e+007
368	0.6	2.5e-002	0.1	3.7156e+007
369	0.525	0.	0.1	1.0219e+007
370	0.55	-2.5e-002	0.1	4.0464e+007
371	0.55	2.5e-002	0.1	4.1606e+007
372	0.475	0.	0.1	1.0219e+007
373	0.5	-2.5e-002	0.1	4.4922e+007
374	0.5	2.5e-002	0.1	4.6065e+007
375	0.425	0.	0.1	1.0219e+007
376	0.45	-2.5e-002	0.1	4.9387e+007
377	0.45	2.5e-002	0.1	5.0532e+007
378	0.375	0.	0.1	1.0219e+007
379	0.4	-2.5e-002	0.1	5.3858e+007
380	0.4	2.5e-002	0.1	5.5004e+007
381	0.325	0.	0.1	1.022e+007
382	0.35	-2.5e-002	0.1	5.8334e+007
383	0.35	2.5e-002	0.1	5.9481e+007
384	0.275	0.	0.1	1.0221e+007
385	0.3	-2.5e-002	0.1	6.2807e+007
386	0.3	2.5e-002	0.1	6.3961e+007
387	0.225	0.	0.1	1.0257e+007
388	0.25	-2.5e-002	0.1	6.7329e+007
389	0.25	2.5e-002	0.1	6.8437e+007
390	0.175	0.	0.1	1.0316e+007
391	0.2	-2.5e-002	0.1	7.1625e+007
392	0.2	2.5e-002	0.1	7.2977e+007
393	0.125	0.	0.1	1.1249e+007
394	0.15	-2.5e-002	0.1	7.7301e+007
395	0.15	2.5e-002	0.1	7.7047e+007
396	7.5e-002	0.	0.1	2.6146e+007
397	0.1	-2.5e-002	0.1	7.732e+007
398	0.1	2.5e-002	0.1	8.3272e+007
399	5.e-002	-2.5e-002	0.1	1.0958e+008
400	5.e-002	2.5e-002	0.1	9.7299e+007
401	2.5e-002	0.	0.1	1.0204e+008
402	7.5e-002	-5.e-002	0.1	1.6728e+008
403	2.5e-002	-5.e-002	0.1	1.8319e+008
404	5.e-002	-5.e-002	7.5e-002	1.9694e+008
405	0.125	-5.e-002	0.1	1.543e+008
406	0.1	-5.e-002	7.5e-002	1.5969e+008
407	0.175	-5.e-002	0.1	1.4985e+008
408	0.15	-5.e-002	7.5e-002	1.5487e+008
409	0.225	-5.e-002	0.1	1.3986e+008
410	0.2	-5.e-002	7.5e-002	1.4451e+008
411	0.275	-5.e-002	0.1	1.3104e+008
412	0.25	-5.e-002	7.5e-002	1.3573e+008
413	0.325	-5.e-002	0.1	1.2199e+008
414	0.3	-5.e-002	7.5e-002	1.2668e+008
415	0.375	-5.e-002	0.1	1.1301e+008
416	0.35	-5.e-002	7.5e-002	1.1769e+008
417	0.425	-5.e-002	0.1	1.0401e+008
418	0.4	-5.e-002	7.5e-002	1.0869e+008
419	0.475	-5.e-002	0.1	9.5007e+007
420	0.45	-5.e-002	7.5e-002	9.9688e+007
421	0.525	-5.e-002	0.1	8.6008e+007
422	0.5	-5.e-002	7.5e-002	9.0689e+007
423	0.575	-5.e-002	0.1	7.701e+007
424	0.55	-5.e-002	7.5e-002	8.169e+007
425	0.625	-5.e-002	0.1	6.8012e+007
426	0.6	-5.e-002	7.5e-002	7.2691e+007
427	0.675	-5.e-002	0.1	5.9014e+007
428	0.65	-5.e-002	7.5e-002	6.3693e+007
429	0.725	-5.e-002	0.1	5.0017e+007
430	0.7	-5.e-002	7.5e-002	5.4695e+007
431	0.775	-5.e-002	0.1	4.1015e+007
432	0.75	-5.e-002	7.5e-002	4.5701e+007
433	0.825	-5.e-002	0.1	3.2018e+007
434	0.8	-5.e-002	7.5e-002	3.6698e+007
435	0.875	-5.e-002	0.1	2.2915e+007
436	0.85	-5.e-002	7.5e-002	2.7741e+007
437	0.925	-5.e-002	0.1	1.2381e+007
438	0.9	-5.e-002	7.5e-002	1.8504e+007
439	0.975	-5.e-002	0.1	3.7491e+006
440	0.95	-5.e-002	7.5e-002	6.5451e+006
441	1.	-2.5e-002	0.1	3.9947e+006
442	1.	-5.e-002	7.5e-002	2.4019e+006
443	1.	2.5e-002	0.1	2.0287e+007
444	1.	0.	7.5e-002	9.0606e+006
445	0.975	5.e-002	0.1	1.6301e+007
446	1.	5.e-002	7.5e-002	3.2522e+007
447	0.925	5.e-002	0.1	1.3448e+007
448	0.95	5.e-002	7.5e-002	1.069e+007
449	0.875	5.e-002	0.1	2.2561e+007
450	0.9	5.e-002	7.5e-002	1.745e+007
451	0.825	5.e-002	0.1	3.1541e+007
452	0.85	5.e-002	7.5e-002	2.6258e+007
453	0.775	5.e-002	0.1	4.0522e+007
454	0.8	5.e-002	7.5e-002	3.5347e+007
455	0.725	5.e-002	0.1	4.9509e+007
456	0.75	5.e-002	7.5e-002	4.4338e+007
457	0.675	5.e-002	0.1	5.8499e+007
458	0.7	5.e-002	7.5e-002	5.3336e+007
459	0.625	5.e-002	0.1	6.7495e+007
460	0.65	5.e-002	7.5e-002	6.2333e+007
461	0.575	5.e-002	0.1	7.6491e+007
462	0.6	5.e-002	7.5e-002	7.1331e+007
463	0.525	5.e-002	0.1	8.5489e+007
464	0.55	5.e-002	7.5e-002	8.033e+007
465	0.475	5.e-002	0.1	9.4487e+007
466	0.5	5.e-002	7.5e-002	8.9329e+007
467	0.425	5.e-002	0.1	1.0349e+008
468	0.45	5.e-002	7.5e-002	9.8328e+007
469	0.375	5.e-002	0.1	1.1248e+008
470	0.4	5.e-002	7.5e-002	1.0733e+008
471	0.325	5.e-002	0.1	1.2149e+008
472	0.35	5.e-002	7.5e-002	1.1633e+008
473	0.275	5.e-002	0.1	1.3047e+008
474	0.3	5.e-002	7.5e-002	1.2533e+008
475	0.225	5.e-002	0.1	1.3955e+008
476	0.25	5.e-002	7.5e-002	1.3432e+008
477	0.175	5.e-002	0.1	1.4817e+008
478	0.2	5.e-002	7.5e-002	1.4337e+008
479	0.125	5.e-002	0.1	1.597e+008
480	0.15	5.e-002	7.5e-002	1.52e+008
481	7.5e-002	5.e-002	0.1	1.7853e+008
482	0.1	5.e-002	7.5e-002	1.6323e+008
483	2.5e-002	5.e-002	0.1	2.1278e+008
484	5.e-002	5.e-002	7.5e-002	1.8051e+008
485	0.	2.5e-002	0.1	2.6341e+008
486	0.	5.e-002	7.5e-002	2.871e+008
487	0.	-2.5e-002	0.1	2.6653e+008
488	0.	0.	7.5e-002	2.0541e+008
489	0.	-5.e-002	7.5e-002	2.8556e+008
490	0.	0.	2.5e-002	2.0541e+008
491	0.	-2.5e-002	5.e-002	1.7347e+008
492	0.	2.5e-002	5.e-002	2.4498e+008
493	0.	-2.5e-002	0.	2.6653e+008
494	0.	2.5e-002	0.	2.6341e+008
495	0.	-5.e-002	2.5e-002	2.8556e+008
496	2.5e-002	-5.e-002	0.	1.8319e+008
497	2.5e-002	-5.e-002	5.e-002	1.3358e+008
498	0.	5.e-002	2.5e-002	2.871e+008
499	2.5e-002	5.e-002	0.	2.1278e+008
500	2.5e-002	5.e-002	5.e-002	2.1493e+008
501	0.925	5.e-002	5.e-002	1.3143e+007
502	0.95	5.e-002	2.5e-002	1.069e+007
503	0.975	5.e-002	5.e-002	1.7767e+007
504	0.875	5.e-002	5.e-002	2.1143e+007
505	0.9	5.e-002	2.5e-002	1.745e+007
506	0.825	5.e-002	5.e-002	3.0064e+007
507	0.85	5.e-002	2.5e-002	2.6258e+007
508	0.775	5.e-002	5.e-002	3.9165e+007
509	0.8	5.e-002	2.5e-002	3.5347e+007
510	0.725	5.e-002	5.e-002	4.8166e+007
511	0.75	5.e-002	2.5e-002	4.4338e+007
512	0.675	5.e-002	5.e-002	5.7171e+007
513	0.7	5.e-002	2.5e-002	5.3336e+007
514	0.625	5.e-002	5.e-002	6.6171e+007
515	0.65	5.e-002	2.5e-002	6.2333e+007
516	0.575	5.e-002	5.e-002	7.5171e+007
517	0.6	5.e-002	2.5e-002	7.1331e+007
518	0.525	5.e-002	5.e-002	8.417e+007
519	0.55	5.e-002	2.5e-002	8.033e+007
520	0.475	5.e-002	5.e-002	9.317e+007
521	0.5	5.e-002	2.5e-002	8.9329e+007
522	0.425	5.e-002	5.e-002	1.0217e+008
523	0.45	5.e-002	2.5e-002	9.8328e+007
524	0.375	5.e-002	5.e-002	1.1117e+008
525	0.4	5.e-002	2.5e-002	1.0733e+008
526	0.325	5.e-002	5.e-002	1.2016e+008
527	0.35	5.e-002	2.5e-002	1.1633e+008
528	0.275	5.e-002	5.e-002	1.2918e+008
529	0.3	5.e-002	2.5e-002	1.2533e+008
530	0.225	5.e-002	5.e-002	1.3814e+008
531	0.25	5.e-002	2.5e-002	1.3432e+008
532	0.175	5.e-002	5.e-002	1.472e+008
533	0.2	5.e-002	2.5e-002	1.4337e+008
534	0.125	5.e-002	5.e-002	1.5551e+008
535	0.15	5.e-002	2.5e-002	1.52e+008
536	7.5e-002	5.e-002	5.e-002	1.6292e+008
537	0.1	5.e-002	2.5e-002	1.6323e+008
538	5.e-002	5.e-002	2.5e-002	1.8051e+008
539	7.5e-002	5.e-002	0.	1.7853e+008
540	0.125	5.e-002	0.	1.597e+008
541	0.175	5.e-002	0.	1.4817e+008
542	0.225	5.e-002	0.	1.3955e+008
543	0.275	5.e-002	0.	1.3047e+008
544	0.325	5.e-002	0.	1.2149e+008
545	0.375	5.e-002	0.	1.1248e+008
546	0.425	5.e-002	0.	1.0349e+008
547	0.475	5.e-002	0.	9.4487e+007
548	0.525	5.e-002	0.	8.5489e+007
549	0.575	5.e-002	0.	7.6491e+007
550	0.625	5.e-002	0.	6.7495e+007
551	0.675	5.e-002	0.	5.8499e+007
552	0.725	5.e-002	0.	4.9509e+007
553	0.775	5.e-002	0.	4.0522e+007
554	0.825	5.e-002	0.	3.1541e+007
555	0.875	5.e-002	0.	2.2561e+007
556	0.925	5.e-002	0.	1.3448e+007
557	0.975	5.e-002	0.	1.6301e+007
558	1.	5.e-002	2.5e-002	3.2522e+007
559	1.	2.5e-002	0.	2.0287e+007
560	1.	2.5e-002	5.e-002	2.0383e+007
561	1.	0.	2.5e-002	9.0606e+006
562	1.	-2.5e-002	5.e-002	4.0061e+006
563	1.	-2.5e-002	0.	3.9947e+006
564	1.	-5.e-002	2.5e-002	2.4019e+006
565	0.975	-5.e-002	0.	3.7491e+006
566	0.975	-5.e-002	5.e-002	4.1303e+006
567	0.925	-5.e-002	5.e-002	1.2566e+007
