Node Number	X Location (m)	Y Location (m)	Z Location (m)	Total Deformation (m)
1	0.95	-1.7347e-018	5.e-002	5.1693e-003
2	0.9	9.8608e-032	5.e-002	4.7896e-003
3	0.85	2.4652e-031	5.e-002	4.4099e-003
4	0.8	3.4694e-018	5.e-002	4.0331e-003
5	0.75	-3.6978e-032	5.e-002	3.6615e-003
6	0.7	0.	5.e-002	3.2972e-003
7	0.65	2.4652e-032	5.e-002	2.9427e-003
8	0.6	0.	5.e-002	2.5999e-003
9	0.55	2.4652e-032	5.e-002	2.2711e-003
10	0.5	-3.4694e-018	5.e-002	1.9583e-003
11	0.45	-3.4694e-018	5.e-002	1.6637e-003
12	0.4	5.5467e-032	5.e-002	1.3892e-003
13	0.35	0.	5.e-002	1.1367e-003
14	0.3	0.	5.e-002	9.0787e-004
15	0.25	-6.163e-033	5.e-002	7.0382e-004
16	0.2	-1.7347e-018	5.e-002	5.2553e-004
17	0.15	9.2445e-033	5.e-002	3.7122e-004
18	0.1	-1.7347e-018	5.e-002	2.4509e-004
19	5.e-002	-3.0815e-033	5.e-002	1.2879e-004
20	5.e-002	-6.163e-033	0.	1.5595e-004
21	0.1	-3.4694e-018	0.	2.6144e-004
22	0.15	1.8489e-032	0.	3.8168e-004
23	0.2	-3.4694e-018	0.	5.3113e-004
24	0.25	-1.2326e-032	0.	7.0658e-004
25	0.3	0.	0.	9.0877e-004
26	0.35	0.	0.	1.1364e-003
27	0.4	1.1093e-031	0.	1.3881e-003
28	0.45	-6.9389e-018	0.	1.6621e-003
29	0.5	-6.9389e-018	0.	1.9564e-003
30	0.55	4.9304e-032	0.	2.269e-003
31	0.6	0.	0.	2.5977e-003
32	0.65	4.9304e-032	0.	2.9405e-003
33	0.7	0.	0.	3.2952e-003
34	0.75	-7.3956e-032	0.	3.6595e-003
35	0.8	6.9389e-018	0.	4.0313e-003
36	0.85	4.9304e-031	0.	4.4082e-003
37	0.9	1.9722e-031	0.	4.7881e-003
38	0.95	-3.4694e-018	0.	5.1678e-003
39	0.95	0.	0.1	5.1678e-003
40	0.9	0.	0.1	4.7881e-003
41	0.85	0.	0.1	4.4082e-003
42	0.8	0.	0.1	4.0313e-003
43	0.75	0.	0.1	3.6595e-003
44	0.7	0.	0.1	3.2952e-003
45	0.65	0.	0.1	2.9405e-003
46	0.6	0.	0.1	2.5977e-003
47	0.55	0.	0.1	2.269e-003
48	0.5	0.	0.1	1.9564e-003
49	0.45	0.	0.1	1.6621e-003
50	0.4	0.	0.1	1.3881e-003
51	0.35	0.	0.1	1.1364e-003
52	0.3	0.	0.1	9.0877e-004
53	0.25	0.	0.1	7.0658e-004
54	0.2	0.	0.1	5.3113e-004
55	0.15	0.	0.1	3.8168e-004
56	0.1	0.	0.1	2.6144e-004
57	5.e-002	0.	0.1	1.5595e-004
58	5.e-002	-5.e-002	0.1	1.7476e-004
59	0.1	-5.e-002	0.1	2.6375e-004
60	0.15	-5.e-002	0.1	3.6978e-004
61	0.2	-5.e-002	0.1	5.0779e-004
62	0.25	-5.e-002	0.1	6.7617e-004
63	0.3	-5.e-002	0.1	8.737e-004
64	0.35	-5.e-002	0.1	1.0984e-003
65	0.4	-5.e-002	0.1	1.3483e-003
66	0.45	-5.e-002	0.1	1.6212e-003
67	0.5	-5.e-002	0.1	1.9151e-003
68	0.55	-5.e-002	0.1	2.2277e-003
69	0.6	-5.e-002	0.1	2.5569e-003
70	0.65	-5.e-002	0.1	2.9005e-003
71	0.7	-5.e-002	0.1	3.2562e-003
72	0.75	-5.e-002	0.1	3.6219e-003
73	0.8	-5.e-002	0.1	3.9953e-003
74	0.85	-5.e-002	0.1	4.3741e-003
75	0.9	-5.e-002	0.1	4.7561e-003
76	0.95	-5.e-002	0.1	5.139e-003
77	1.	-5.e-002	0.1	5.5181e-003
78	1.	0.	0.1	5.5448e-003
79	1.	5.e-002	0.1	5.6115e-003
80	0.95	5.e-002	0.1	5.2309e-003
81	0.9	5.e-002	0.1	4.8557e-003
82	0.85	5.e-002	0.1	4.4805e-003
83	0.8	5.e-002	0.1	4.1081e-003
84	0.75	5.e-002	0.1	3.7407e-003
85	0.7	5.e-002	0.1	3.3804e-003
86	0.65	5.e-002	0.1	3.0294e-003
87	0.6	5.e-002	0.1	2.6899e-003
88	0.55	5.e-002	0.1	2.3639e-003
89	0.5	5.e-002	0.1	2.0535e-003
90	0.45	5.e-002	0.1	1.7606e-003
91	0.4	5.e-002	0.1	1.4871e-003
92	0.35	5.e-002	0.1	1.2345e-003
93	0.3	5.e-002	0.1	1.0043e-003
94	0.25	5.e-002	0.1	7.9728e-004
95	0.2	5.e-002	0.1	6.1396e-004
96	0.15	5.e-002	0.1	4.5331e-004
97	0.1	5.e-002	0.1	3.156e-004
98	5.e-002	5.e-002	0.1	1.8418e-004
99	0.	5.e-002	0.1	0.
100	0.	0.	0.1	0.
101	0.	-5.e-002	0.1	0.
102	0.	0.	5.e-002	0.
103	0.	0.	0.	0.
104	0.	-5.e-002	0.	0.
105	0.	-5.e-002	5.e-002	0.
106	0.	5.e-002	0.	0.
107	0.	5.e-002	5.e-002	0.
108	0.95	5.e-002	5.e-002	5.2314e-003
109	0.9	5.e-002	5.e-002	4.856e-003
110	0.85	5.e-002	5.e-002	4.481e-003
111	0.8	5.e-002	5.e-002	4.1089e-003
112	0.75	5.e-002	5.e-002	3.7416e-003
113	0.7	5.e-002	5.e-002	3.3815e-003
114	0.65	5.e-002	5.e-002	3.0306e-003
115	0.6	5.e-002	5.e-002	2.6911e-003
116	0.55	5.e-002	5.e-002	2.3651e-003
117	0.5	5.e-002	5.e-002	2.0546e-003
118	0.45	5.e-002	5.e-002	1.7615e-003
119	0.4	5.e-002	5.e-002	1.4876e-003
120	0.35	5.e-002	5.e-002	1.2345e-003
121	0.3	5.e-002	5.e-002	1.0034e-003
122	0.25	5.e-002	5.e-002	7.9506e-004
123	0.2	5.e-002	5.e-002	6.0982e-004
124	0.15	5.e-002	5.e-002	4.4575e-004
125	0.1	5.e-002	5.e-002	3.0509e-004
126	5.e-002	5.e-002	5.e-002	1.7264e-004
127	5.e-002	5.e-002	0.	1.8418e-004
128	0.1	5.e-002	0.	3.156e-004
129	0.15	5.e-002	0.	4.5331e-004
130	0.2	5.e-002	0.	6.1396e-004
131	0.25	5.e-002	0.	7.9728e-004
132	0.3	5.e-002	0.	1.0043e-003
133	0.35	5.e-002	0.	1.2345e-003
134	0.4	5.e-002	0.	1.4871e-003
135	0.45	5.e-002	0.	1.7606e-003
136	0.5	5.e-002	0.	2.0535e-003
137	0.55	5.e-002	0.	2.3639e-003
138	0.6	5.e-002	0.	2.6899e-003
139	0.65	5.e-002	0.	3.0294e-003
140	0.7	5.e-002	0.	3.3804e-003
141	0.75	5.e-002	0.	3.7407e-003
142	0.8	5.e-002	0.	4.1081e-003
143	0.85	5.e-002	0.	4.4805e-003
144	0.9	5.e-002	0.	4.8557e-003
145	0.95	5.e-002	0.	5.2309e-003
146	1.	5.e-002	0.	5.6115e-003
147	1.	5.e-002	5.e-002	5.6126e-003
148	1.	0.	5.e-002	5.5465e-003
149	1.	0.	0.	5.5448e-003
150	1.	-5.e-002	0.	5.5181e-003
151	1.	-5.e-002	5.e-002	5.5203e-003
152	0.95	-5.e-002	5.e-002	5.1413e-003
153	0.9	-5.e-002	5.e-002	4.7585e-003
154	0.85	-5.e-002	5.e-002	4.3766e-003
155	0.8	-5.e-002	5.e-002	3.9979e-003
156	0.75	-5.e-002	5.e-002	3.6246e-003
157	0.7	-5.e-002	5.e-002	3.259e-003
158	0.65	-5.e-002	5.e-002	2.9033e-003
159	0.6	-5.e-002	5.e-002	2.5597e-003
160	0.55	-5.e-002	5.e-002	2.2304e-003
161	0.5	-5.e-002	5.e-002	1.9175e-003
162	0.45	-5.e-002	5.e-002	1.6232e-003
163	0.4	-5.e-002	5.e-002	1.3496e-003
164	0.35	-5.e-002	5.e-002	1.0988e-003
165	0.3	-5.e-002	5.e-002	8.7255e-004
166	0.25	-5.e-002	5.e-002	6.7267e-004
167	0.2	-5.e-002	5.e-002	5.0075e-004
168	0.15	-5.e-002	5.e-002	3.5692e-004
169	0.1	-5.e-002	5.e-002	2.4426e-004
170	5.e-002	-5.e-002	5.e-002	1.5195e-004
171	0.95	-5.e-002	0.	5.139e-003
172	0.9	-5.e-002	0.	4.7561e-003
173	0.85	-5.e-002	0.	4.3741e-003
174	0.8	-5.e-002	0.	3.9953e-003
175	0.75	-5.e-002	0.	3.6219e-003
176	0.7	-5.e-002	0.	3.2562e-003
177	0.65	-5.e-002	0.	2.9005e-003
178	0.6	-5.e-002	0.	2.5569e-003
179	0.55	-5.e-002	0.	2.2277e-003
180	0.5	-5.e-002	0.	1.9151e-003
181	0.45	-5.e-002	0.	1.6212e-003
182	0.4	-5.e-002	0.	1.3483e-003
183	0.35	-5.e-002	0.	1.0984e-003
184	0.3	-5.e-002	0.	8.737e-004
185	0.25	-5.e-002	0.	6.7617e-004
186	0.2	-5.e-002	0.	5.0779e-004
187	0.15	-5.e-002	0.	3.6978e-004
188	0.1	-5.e-002	0.	2.6375e-004
189	5.e-002	-5.e-002	0.	1.7476e-004
190	0.925	-8.6736e-019	5.e-002	4.9797e-003
191	0.95	-2.6021e-018	2.5e-002	5.169e-003
192	0.95	-8.6736e-019	7.5e-002	5.169e-003
193	0.95	2.5e-002	5.e-002	5.1965e-003
194	0.975	-8.6736e-019	5.e-002	5.3593e-003
195	0.95	-2.5e-002	5.e-002	5.1512e-003
196	0.875	1.7256e-031	5.e-002	4.5995e-003
197	0.9	1.4791e-031	2.5e-002	4.7892e-003
198	0.9	4.9304e-032	7.5e-002	4.7892e-003
199	0.9	2.5e-002	5.e-002	4.8184e-003
200	0.9	-2.5e-002	5.e-002	4.7696e-003
201	0.825	1.7347e-018	5.e-002	4.221e-003
202	0.85	3.6978e-031	2.5e-002	4.4095e-003
203	0.85	1.2326e-031	7.5e-002	4.4095e-003
204	0.85	2.5e-002	5.e-002	4.4409e-003
205	0.85	-2.5e-002	5.e-002	4.3884e-003
206	0.775	1.7347e-018	5.e-002	3.8465e-003
207	0.8	5.2042e-018	2.5e-002	4.0326e-003
208	0.8	1.7347e-018	7.5e-002	4.0326e-003
209	0.8	2.5e-002	5.e-002	4.066e-003
210	0.8	-2.5e-002	5.e-002	4.0103e-003
211	0.725	-1.8489e-032	5.e-002	3.4783e-003
212	0.75	-5.5467e-032	2.5e-002	3.661e-003
213	0.75	-1.8489e-032	7.5e-002	3.661e-003
214	0.75	2.5e-002	5.e-002	3.6963e-003
215	0.75	-2.5e-002	5.e-002	3.6375e-003
216	0.675	1.2326e-032	5.e-002	3.1186e-003
217	0.7	0.	2.5e-002	3.2968e-003
218	0.7	0.	7.5e-002	3.2968e-003
219	0.7	2.5e-002	5.e-002	3.3338e-003
220	0.7	-2.5e-002	5.e-002	3.2722e-003
221	0.625	1.2326e-032	5.e-002	2.7697e-003
222	0.65	3.6978e-032	2.5e-002	2.9422e-003
223	0.65	1.2326e-032	7.5e-002	2.9422e-003
224	0.65	2.5e-002	5.e-002	2.9808e-003
225	0.65	-2.5e-002	5.e-002	2.9167e-003
226	0.575	1.2326e-032	5.e-002	2.4336e-003
227	0.6	0.	2.5e-002	2.5994e-003
228	0.6	0.	7.5e-002	2.5994e-003
229	0.6	2.5e-002	5.e-002	2.6394e-003
230	0.6	-2.5e-002	5.e-002	2.5732e-003
231	0.525	-1.7347e-018	5.e-002	2.1125e-003
232	0.55	3.6978e-032	2.5e-002	2.2706e-003
233	0.55	1.2326e-032	7.5e-002	2.2706e-003
234	0.55	2.5e-002	5.e-002	2.3118e-003
235	0.55	-2.5e-002	5.e-002	2.2437e-003
236	0.475	-3.4694e-018	5.e-002	1.8086e-003
237	0.5	-5.2042e-018	2.5e-002	1.9579e-003
238	0.5	-1.7347e-018	7.5e-002	1.9579e-003
239	0.5	2.5e-002	5.e-002	2.e-003
240	0.5	-2.5e-002	5.e-002	1.9306e-003
241	0.425	-1.7347e-018	5.e-002	1.5238e-003
242	0.45	-5.2042e-018	2.5e-002	1.6633e-003
243	0.45	-1.7347e-018	7.5e-002	1.6633e-003
244	0.45	2.5e-002	5.e-002	1.706e-003
245	0.45	-2.5e-002	5.e-002	1.6358e-003
246	0.375	2.7733e-032	5.e-002	1.2601e-003
247	0.4	8.32e-032	2.5e-002	1.389e-003
248	0.4	2.7733e-032	7.5e-002	1.389e-003
249	0.4	2.5e-002	5.e-002	1.4317e-003
250	0.4	-2.5e-002	5.e-002	1.3615e-003
251	0.325	0.	5.e-002	1.0193e-003
252	0.35	0.	2.5e-002	1.1367e-003
253	0.35	0.	7.5e-002	1.1367e-003
254	0.35	2.5e-002	5.e-002	1.179e-003
255	0.35	-2.5e-002	5.e-002	1.1095e-003
256	0.275	-3.0815e-033	5.e-002	8.0269e-004
257	0.3	0.	2.5e-002	9.0811e-004
258	0.3	0.	7.5e-002	9.0811e-004
259	0.3	2.5e-002	5.e-002	9.4911e-004
260	0.3	-2.5e-002	5.e-002	8.8173e-004
261	0.225	-8.6736e-019	5.e-002	6.1146e-004
262	0.25	-9.2445e-033	2.5e-002	7.0457e-004
263	0.25	-3.0815e-033	7.5e-002	7.0457e-004
264	0.25	2.5e-002	5.e-002	7.4322e-004
265	0.25	-2.5e-002	5.e-002	6.7958e-004
266	0.175	-8.6736e-019	5.e-002	4.4543e-004
267	0.2	-2.6021e-018	2.5e-002	5.2682e-004
268	0.2	-8.6736e-019	7.5e-002	5.2682e-004
269	0.2	2.5e-002	5.e-002	5.6162e-004
270	0.2	-2.5e-002	5.e-002	5.0414e-004
271	0.125	-8.6736e-019	5.e-002	3.0464e-004
272	0.15	1.3867e-032	2.5e-002	3.7437e-004
273	0.15	4.6222e-033	7.5e-002	3.7437e-004
274	0.15	2.5e-002	5.e-002	4.0348e-004
275	0.15	-2.5e-002	5.e-002	3.55e-004
276	7.5e-002	-8.6736e-019	5.e-002	1.8561e-004
277	0.1	-2.6021e-018	2.5e-002	2.4726e-004
278	0.1	-8.6736e-019	7.5e-002	2.4726e-004
279	0.1	2.5e-002	5.e-002	2.6781e-004
280	0.1	-2.5e-002	5.e-002	2.3347e-004
281	5.e-002	-4.6222e-033	2.5e-002	1.3892e-004
282	5.e-002	-1.5407e-033	7.5e-002	1.3892e-004
283	2.5e-002	-1.5407e-033	5.e-002	8.8485e-005
284	5.e-002	2.5e-002	5.e-002	1.4956e-004
285	5.e-002	-2.5e-002	5.e-002	1.3059e-004
286	7.5e-002	-1.7347e-018	0.	2.0682e-004
287	2.5e-002	-3.0815e-033	0.	1.0998e-004
288	5.e-002	2.5e-002	0.	1.6831e-004
289	5.e-002	-2.5e-002	0.	1.5737e-004
290	0.125	-1.7347e-018	0.	3.1817e-004
291	0.1	2.5e-002	0.	2.8174e-004
292	0.1	-2.5e-002	0.	2.5259e-004
293	0.175	-1.7347e-018	0.	4.531e-004
294	0.15	2.5e-002	0.	4.1221e-004
295	0.15	-2.5e-002	0.	3.6671e-004
296	0.225	-1.7347e-018	0.	6.1549e-004
297	0.2	2.5e-002	0.	5.6645e-004
298	0.2	-2.5e-002	0.	5.105e-004
299	0.275	-6.163e-033	0.	8.0442e-004
300	0.25	2.5e-002	0.	7.4563e-004
301	0.25	-2.5e-002	0.	6.8263e-004
302	0.325	0.	0.	1.0195e-003
303	0.3	2.5e-002	0.	9.4994e-004
304	0.3	-2.5e-002	0.	8.8267e-004
305	0.375	5.5467e-032	0.	1.2594e-003
306	0.35	2.5e-002	0.	1.1788e-003
307	0.35	-2.5e-002	0.	1.1091e-003
308	0.425	-3.4694e-018	0.	1.5224e-003
309	0.4	2.5e-002	0.	1.4309e-003
310	0.4	-2.5e-002	0.	1.3601e-003
311	0.475	-6.9389e-018	0.	1.8068e-003
312	0.45	2.5e-002	0.	1.7047e-003
313	0.45	-2.5e-002	0.	1.6339e-003
314	0.525	-3.4694e-018	0.	2.1105e-003
315	0.5	2.5e-002	0.	1.9984e-003
316	0.5	-2.5e-002	0.	1.9283e-003
317	0.575	2.4652e-032	0.	2.4315e-003
318	0.55	2.5e-002	0.	2.3101e-003
319	0.55	-2.5e-002	0.	2.2412e-003
320	0.625	2.4652e-032	0.	2.7675e-003
321	0.6	2.5e-002	0.	2.6377e-003
322	0.6	-2.5e-002	0.	2.5706e-003
323	0.675	2.4652e-032	0.	3.1165e-003
324	0.65	2.5e-002	0.	2.9791e-003
325	0.65	-2.5e-002	0.	2.9141e-003
326	0.725	-3.6978e-032	0.	3.4763e-003
327	0.7	2.5e-002	0.	3.3322e-003
328	0.7	-2.5e-002	0.	3.2696e-003
329	0.775	3.4694e-018	0.	3.8446e-003
330	0.75	2.5e-002	0.	3.6948e-003
331	0.75	-2.5e-002	0.	3.635e-003
332	0.825	3.4694e-018	0.	4.2192e-003
333	0.8	2.5e-002	0.	4.0647e-003
334	0.8	-2.5e-002	0.	4.0079e-003
335	0.875	3.4513e-031	0.	4.598e-003
336	0.85	2.5e-002	0.	4.4397e-003
337	0.85	-2.5e-002	0.	4.3862e-003
338	0.925	-1.7347e-018	0.	4.9782e-003
339	0.9	2.5e-002	0.	4.8175e-003
340	0.9	-2.5e-002	0.	4.7675e-003
341	0.95	2.5e-002	0.	5.1955e-003
342	0.975	-1.7347e-018	0.	5.3579e-003
343	0.95	-2.5e-002	0.	5.1492e-003
344	0.925	0.	0.1	4.9782e-003
345	0.95	-2.5e-002	0.1	5.1492e-003
346	0.975	0.	0.1	5.3579e-003
347	0.95	2.5e-002	0.1	5.1955e-003
348	0.875	0.	0.1	4.598e-003
349	0.9	-2.5e-002	0.1	4.7675e-003
350	0.9	2.5e-002	0.1	4.8175e-003
351	0.825	0.	0.1	4.2192e-003
352	0.85	-2.5e-002	0.1	4.3862e-003
353	0.85	2.5e-002	0.1	4.4397e-003
354	0.775	0.	0.1	3.8446e-003
355	0.8	-2.5e-002	0.1	4.0079e-003
356	0.8	2.5e-002	0.1	4.0647e-003
357	0.725	0.	0.1	3.4763e-003
358	0.75	-2.5e-002	0.1	3.635e-003
359	0.75	2.5e-002	0.1	3.6948e-003
360	0.675	0.	0.1	3.1165e-003
361	0.7	-2.5e-002	0.1	3.2696e-003
362	0.7	2.5e-002	0.1	3.3322e-003
363	0.625	0.	0.1	2.7675e-003
364	0.65	-2.5e-002	0.1	2.9141e-003
365	0.65	2.5e-002	0.1	2.9791e-003
366	0.575	0.	0.1	2.4315e-003
367	0.6	-2.5e-002	0.1	2.5706e-003
368	0.6	2.5e-002	0.1	2.6377e-003
369	0.525	0.	0.1	2.1105e-003
370	0.55	-2.5e-002	0.1	2.2412e-003
371	0.55	2.5e-002	0.1	2.3101e-003
372	0.475	0.	0.1	1.8068e-003
373	0.5	-2.5e-002	0.1	1.9283e-003
374	0.5	2.5e-002	0.1	1.9984e-003
375	0.425	0.	0.1	1.5224e-003
376	0.45	-2.5e-002	0.1	1.6339e-003
377	0.45	2.5e-002	0.1	1.7047e-003
378	0.375	0.	0.1	1.2594e-003
379	0.4	-2.5e-002	0.1	1.3601e-003
380	0.4	2.5e-002	0.1	1.4309e-003
381	0.325	0.	0.1	1.0195e-003
382	0.35	-2.5e-002	0.1	1.1091e-003
383	0.35	2.5e-002	0.1	1.1788e-003
384	0.275	0.	0.1	8.0442e-004
385	0.3	-2.5e-002	0.1	8.8267e-004
386	0.3	2.5e-002	0.1	9.4994e-004
387	0.225	0.	0.1	6.1549e-004
388	0.25	-2.5e-002	0.1	6.8263e-004
389	0.25	2.5e-002	0.1	7.4563e-004
390	0.175	0.	0.1	4.531e-004
391	0.2	-2.5e-002	0.1	5.105e-004
392	0.2	2.5e-002	0.1	5.6645e-004
393	0.125	0.	0.1	3.1817e-004
394	0.15	-2.5e-002	0.1	3.6671e-004
395	0.15	2.5e-002	0.1	4.1221e-004
396	7.5e-002	0.	0.1	2.0682e-004
397	0.1	-2.5e-002	0.1	2.5259e-004
398	0.1	2.5e-002	0.1	2.8174e-004
399	5.e-002	-2.5e-002	0.1	1.5737e-004
400	5.e-002	2.5e-002	0.1	1.6831e-004
401	2.5e-002	0.	0.1	1.0998e-004
402	7.5e-002	-5.e-002	0.1	2.1977e-004
403	2.5e-002	-5.e-002	0.1	1.4077e-004
404	5.e-002	-5.e-002	7.5e-002	1.5831e-004
405	0.125	-5.e-002	0.1	3.1342e-004
406	0.1	-5.e-002	7.5e-002	2.48e-004
407	0.175	-5.e-002	0.1	4.3483e-004
408	0.15	-5.e-002	7.5e-002	3.6046e-004
409	0.225	-5.e-002	0.1	5.8825e-004
410	0.2	-5.e-002	7.5e-002	5.0246e-004
411	0.275	-5.e-002	0.1	7.7142e-004
412	0.25	-5.e-002	7.5e-002	6.736e-004
413	0.325	-5.e-002	0.1	9.8276e-004
414	0.3	-5.e-002	7.5e-002	8.7286e-004
415	0.375	-5.e-002	0.1	1.2203e-003
416	0.35	-5.e-002	7.5e-002	1.0987e-003
417	0.425	-5.e-002	0.1	1.482e-003
418	0.4	-5.e-002	7.5e-002	1.3493e-003
419	0.475	-5.e-002	0.1	1.7657e-003
420	0.45	-5.e-002	7.5e-002	1.6228e-003
421	0.525	-5.e-002	0.1	2.0692e-003
422	0.5	-5.e-002	7.5e-002	1.917e-003
423	0.575	-5.e-002	0.1	2.3904e-003
424	0.55	-5.e-002	7.5e-002	2.2298e-003
425	0.625	-5.e-002	0.1	2.7271e-003
426	0.6	-5.e-002	7.5e-002	2.5591e-003
427	0.675	-5.e-002	0.1	3.077e-003
428	0.65	-5.e-002	7.5e-002	2.9027e-003
429	0.725	-5.e-002	0.1	3.4379e-003
430	0.7	-5.e-002	7.5e-002	3.2584e-003
431	0.775	-5.e-002	0.1	3.8078e-003
432	0.75	-5.e-002	7.5e-002	3.624e-003
433	0.825	-5.e-002	0.1	4.1841e-003
434	0.8	-5.e-002	7.5e-002	3.9973e-003
435	0.875	-5.e-002	0.1	4.5648e-003
436	0.85	-5.e-002	7.5e-002	4.376e-003
437	0.925	-5.e-002	0.1	4.9476e-003
438	0.9	-5.e-002	7.5e-002	4.758e-003
439	0.975	-5.e-002	0.1	5.3292e-003
440	0.95	-5.e-002	7.5e-002	5.1408e-003
441	1.	-2.5e-002	0.1	5.527e-003
442	1.	-5.e-002	7.5e-002	5.5199e-003
443	1.	2.5e-002	0.1	5.5729e-003
444	1.	0.	7.5e-002	5.5459e-003
445	0.975	5.e-002	0.1	5.4185e-003
446	1.	5.e-002	7.5e-002	5.6124e-003
447	0.925	5.e-002	0.1	5.0433e-003
448	0.95	5.e-002	7.5e-002	5.2313e-003
449	0.875	5.e-002	0.1	4.6678e-003
450	0.9	5.e-002	7.5e-002	4.8559e-003
451	0.825	5.e-002	0.1	4.2938e-003
452	0.85	5.e-002	7.5e-002	4.4809e-003
453	0.775	5.e-002	0.1	3.9236e-003
454	0.8	5.e-002	7.5e-002	4.1087e-003
455	0.725	5.e-002	0.1	3.5595e-003
456	0.75	5.e-002	7.5e-002	3.7414e-003
457	0.675	5.e-002	0.1	3.2036e-003
458	0.7	5.e-002	7.5e-002	3.3812e-003
459	0.625	5.e-002	0.1	2.8581e-003
460	0.65	5.e-002	7.5e-002	3.0303e-003
461	0.575	5.e-002	0.1	2.5251e-003
462	0.6	5.e-002	7.5e-002	2.6908e-003
463	0.525	5.e-002	0.1	2.2066e-003
464	0.55	5.e-002	7.5e-002	2.3649e-003
465	0.475	5.e-002	0.1	1.9047e-003
466	0.5	5.e-002	7.5e-002	2.0544e-003
467	0.425	5.e-002	0.1	1.6213e-003
468	0.45	5.e-002	7.5e-002	1.7613e-003
469	0.375	5.e-002	0.1	1.3581e-003
470	0.4	5.e-002	7.5e-002	1.4875e-003
471	0.325	5.e-002	0.1	1.1165e-003
472	0.35	5.e-002	7.5e-002	1.2345e-003
473	0.275	5.e-002	0.1	8.9783e-004
474	0.3	5.e-002	7.5e-002	1.0037e-003
475	0.225	5.e-002	0.1	7.0271e-004
476	0.25	5.e-002	7.5e-002	7.9568e-004
477	0.175	5.e-002	0.1	5.3071e-004
478	0.2	5.e-002	7.5e-002	6.1083e-004
479	0.125	5.e-002	0.1	3.8236e-004
480	0.15	5.e-002	7.5e-002	4.4801e-004
481	7.5e-002	5.e-002	0.1	2.4854e-004
482	0.1	5.e-002	7.5e-002	3.0643e-004
483	2.5e-002	5.e-002	0.1	1.274e-004
484	5.e-002	5.e-002	7.5e-002	1.7681e-004
485	0.	2.5e-002	0.1	0.
486	0.	5.e-002	7.5e-002	0.
487	0.	-2.5e-002	0.1	0.
488	0.	0.	7.5e-002	0.
489	0.	-5.e-002	7.5e-002	0.
490	0.	0.	2.5e-002	0.
491	0.	-2.5e-002	5.e-002	0.
492	0.	2.5e-002	5.e-002	0.
493	0.	-2.5e-002	0.	0.
494	0.	2.5e-002	0.	0.
495	0.	-5.e-002	2.5e-002	0.
496	2.5e-002	-5.e-002	0.	1.4077e-004
497	2.5e-002	-5.e-002	5.e-002	1.1235e-004
498	0.	5.e-002	2.5e-002	0.
499	2.5e-002	5.e-002	0.	1.274e-004
500	2.5e-002	5.e-002	5.e-002	1.1318e-004
501	0.925	5.e-002	5.e-002	5.0436e-003
502	0.95	5.e-002	2.5e-002	5.2313e-003
503	0.975	5.e-002	5.e-002	5.4193e-003
504	0.875	5.e-002	5.e-002	4.6682e-003
505	0.9	5.e-002	2.5e-002	4.8559e-003
506	0.825	5.e-002	5.e-002	4.2945e-003
507	0.85	5.e-002	2.5e-002	4.4809e-003
508	0.775	5.e-002	5.e-002	3.9245e-003
509	0.8	5.e-002	2.5e-002	4.1087e-003
510	0.725	5.e-002	5.e-002	3.5605e-003
511	0.75	5.e-002	2.5e-002	3.7414e-003
512	0.675	5.e-002	5.e-002	3.2047e-003
513	0.7	5.e-002	2.5e-002	3.3812e-003
514	0.625	5.e-002	5.e-002	2.8593e-003
515	0.65	5.e-002	2.5e-002	3.0303e-003
516	0.575	5.e-002	5.e-002	2.5263e-003
517	0.6	5.e-002	2.5e-002	2.6908e-003
518	0.525	5.e-002	5.e-002	2.2078e-003
519	0.55	5.e-002	2.5e-002	2.3649e-003
520	0.475	5.e-002	5.e-002	1.9058e-003
521	0.5	5.e-002	2.5e-002	2.0544e-003
522	0.425	5.e-002	5.e-002	1.6221e-003
523	0.45	5.e-002	2.5e-002	1.7613e-003
524	0.375	5.e-002	5.e-002	1.3584e-003
525	0.4	5.e-002	2.5e-002	1.4875e-003
526	0.325	5.e-002	5.e-002	1.1161e-003
527	0.35	5.e-002	2.5e-002	1.2345e-003
528	0.275	5.e-002	5.e-002	8.9635e-004
529	0.3	5.e-002	2.5e-002	1.0037e-003
530	0.225	5.e-002	5.e-002	6.9962e-004
531	0.25	5.e-002	2.5e-002	7.9568e-004
532	0.175	5.e-002	5.e-002	5.2512e-004
533	0.2	5.e-002	2.5e-002	6.1083e-004
534	0.125	5.e-002	5.e-002	3.7304e-004
535	0.15	5.e-002	2.5e-002	4.4801e-004
536	7.5e-002	5.e-002	5.e-002	2.3703e-004
537	0.1	5.e-002	2.5e-002	3.0643e-004
538	5.e-002	5.e-002	2.5e-002	1.7681e-004
539	7.5e-002	5.e-002	0.	2.4854e-004
540	0.125	5.e-002	0.	3.8236e-004
541	0.175	5.e-002	0.	5.3071e-004
542	0.225	5.e-002	0.	7.0271e-004
543	0.275	5.e-002	0.	8.9783e-004
544	0.325	5.e-002	0.	1.1165e-003
545	0.375	5.e-002	0.	1.3581e-003
546	0.425	5.e-002	0.	1.6213e-003
547	0.475	5.e-002	0.	1.9047e-003
548	0.525	5.e-002	0.	2.2066e-003
549	0.575	5.e-002	0.	2.5251e-003
550	0.625	5.e-002	0.	2.8581e-003
551	0.675	5.e-002	0.	3.2036e-003
552	0.725	5.e-002	0.	3.5595e-003
553	0.775	5.e-002	0.	3.9236e-003
554	0.825	5.e-002	0.	4.2938e-003
555	0.875	5.e-002	0.	4.6678e-003
556	0.925	5.e-002	0.	5.0433e-003
557	0.975	5.e-002	0.	5.4185e-003
558	1.	5.e-002	2.5e-002	5.6124e-003
559	1.	2.5e-002	0.	5.5729e-003
560	1.	2.5e-002	5.e-002	5.5743e-003
561	1.	0.	2.5e-002	5.5459e-003
562	1.	-2.5e-002	5.e-002	5.5291e-003
563	1.	-2.5e-002	0.	5.527e-003
564	1.	-5.e-002	2.5e-002	5.5199e-003
565	0.975	-5.e-002	0.	5.3292e-003
566	0.975	-5.e-002	5.e-002	5.3314e-003
567	0.925	-5.e-002	5.e-002	4.9499e-003
568	0.95	-5.e-002	2.5e-002	5.1408e-003
569	0.875	-5.e-002	5.e-002	4.5673e-003
570	0.9	-5.e-002	2.5e-002	4.758e-003
571	0.825	-5.e-002	5.e-002	4.1867e-003
