Node Number	X Location (m)	Y Location (m)	Z Location (m)	Total Deformation (m)
1	0.95	-1.7347e-018	5.e-002	7.3947e-003
2	0.9	9.8608e-032	5.e-002	6.7984e-003
3	0.85	2.4652e-031	5.e-002	6.2079e-003
4	0.8	3.4694e-018	5.e-002	5.6264e-003
5	0.75	-3.6978e-032	5.e-002	5.0569e-003
6	0.7	0.	5.e-002	4.5025e-003
7	0.65	2.4652e-032	5.e-002	3.9662e-003
8	0.6	0.	5.e-002	3.4508e-003
9	0.55	2.4652e-032	5.e-002	2.9596e-003
10	0.5	-3.4694e-018	5.e-002	2.4954e-003
11	0.45	-3.4694e-018	5.e-002	2.0612e-003
12	0.4	5.5467e-032	5.e-002	1.66e-003
13	0.35	0.	5.e-002	1.295e-003
14	0.3	0.	5.e-002	9.6891e-004
15	0.25	-6.163e-033	5.e-002	6.8492e-004
16	0.2	-1.7347e-018	5.e-002	4.4596e-004
17	0.15	9.2445e-033	5.e-002	2.5508e-004
18	0.1	-1.7347e-018	5.e-002	1.1513e-004
19	5.e-002	-3.0815e-033	5.e-002	2.9477e-005
20	5.e-002	-6.163e-033	0.	2.2591e-005
21	0.1	-3.4694e-018	0.	1.0728e-004
22	0.15	1.8489e-032	0.	2.4748e-004
23	0.2	-3.4694e-018	0.	4.3879e-004
24	0.25	-1.2326e-032	0.	6.7819e-004
25	0.3	0.	0.	9.6263e-004
26	0.35	0.	0.	1.2891e-003
27	0.4	1.1093e-031	0.	1.6547e-003
28	0.45	-6.9389e-018	0.	2.0562e-003
29	0.5	-6.9389e-018	0.	2.4909e-003
30	0.55	4.9304e-032	0.	2.9556e-003
31	0.6	0.	0.	3.4473e-003
32	0.65	4.9304e-032	0.	3.963e-003
33	0.7	0.	0.	4.4999e-003
34	0.75	-7.3956e-032	0.	5.0547e-003
35	0.8	6.9389e-018	0.	5.6246e-003
36	0.85	4.9304e-031	0.	6.2066e-003
37	0.9	1.9722e-031	0.	6.7976e-003
38	0.95	-3.4694e-018	0.	7.3943e-003
39	0.95	0.	0.1	7.3943e-003
40	0.9	0.	0.1	6.7976e-003
41	0.85	0.	0.1	6.2066e-003
42	0.8	0.	0.1	5.6246e-003
43	0.75	0.	0.1	5.0547e-003
44	0.7	0.	0.1	4.4999e-003
45	0.65	0.	0.1	3.963e-003
46	0.6	0.	0.1	3.4473e-003
47	0.55	0.	0.1	2.9556e-003
48	0.5	0.	0.1	2.4909e-003
49	0.45	0.	0.1	2.0562e-003
50	0.4	0.	0.1	1.6547e-003
51	0.35	0.	0.1	1.2891e-003
52	0.3	0.	0.1	9.6263e-004
53	0.25	0.	0.1	6.7819e-004
54	0.2	0.	0.1	4.3879e-004
55	0.15	0.	0.1	2.4748e-004
56	0.1	0.	0.1	1.0728e-004
57	5.e-002	0.	0.1	2.2591e-005
58	5.e-002	-5.e-002	0.1	6.5234e-005
59	0.1	-5.e-002	0.1	1.6128e-004
60	0.15	-5.e-002	0.1	3.0414e-004
61	0.2	-5.e-002	0.1	4.953e-004
62	0.25	-5.e-002	0.1	7.3349e-004
63	0.3	-5.e-002	0.1	1.0162e-003
64	0.35	-5.e-002	0.1	1.3407e-003
65	0.4	-5.e-002	0.1	1.7042e-003
66	0.45	-5.e-002	0.1	2.1036e-003
67	0.5	-5.e-002	0.1	2.536e-003
68	0.55	-5.e-002	0.1	2.9985e-003
69	0.6	-5.e-002	0.1	3.4879e-003
70	0.65	-5.e-002	0.1	4.0014e-003
71	0.7	-5.e-002	0.1	4.536e-003
72	0.75	-5.e-002	0.1	5.0886e-003
73	0.8	-5.e-002	0.1	5.6563e-003
74	0.85	-5.e-002	0.1	6.236e-003
75	0.9	-5.e-002	0.1	6.8249e-003
76	0.95	-5.e-002	0.1	7.42e-003
77	1.	-5.e-002	0.1	8.0163e-003
78	1.	0.	0.1	7.9933e-003
79	1.	5.e-002	0.1	8.0247e-003
80	0.95	5.e-002	0.1	7.4182e-003
81	0.9	5.e-002	0.1	6.8235e-003
82	0.85	5.e-002	0.1	6.2345e-003
83	0.8	5.e-002	0.1	5.6548e-003
84	0.75	5.e-002	0.1	5.087e-003
85	0.7	5.e-002	0.1	4.5343e-003
86	0.65	5.e-002	0.1	3.9997e-003
87	0.6	5.e-002	0.1	3.4861e-003
88	0.55	5.e-002	0.1	2.9966e-003
89	0.5	5.e-002	0.1	2.5341e-003
90	0.45	5.e-002	0.1	2.1017e-003
91	0.4	5.e-002	0.1	1.7022e-003
92	0.35	5.e-002	0.1	1.3387e-003
93	0.3	5.e-002	0.1	1.0141e-003
94	0.25	5.e-002	0.1	7.3141e-004
95	0.2	5.e-002	0.1	4.9323e-004
96	0.15	5.e-002	0.1	3.0217e-004
97	0.1	5.e-002	0.1	1.596e-004
98	5.e-002	5.e-002	0.1	6.4548e-005
99	0.	5.e-002	0.1	0.
100	0.	0.	0.1	0.
101	0.	-5.e-002	0.1	0.
102	0.	0.	5.e-002	0.
103	0.	0.	0.	0.
104	0.	-5.e-002	0.	0.
105	0.	-5.e-002	5.e-002	0.
106	0.	5.e-002	0.	0.
107	0.	5.e-002	5.e-002	0.
108	0.95	5.e-002	5.e-002	7.419e-003
109	0.9	5.e-002	5.e-002	6.8244e-003
110	0.85	5.e-002	5.e-002	6.2359e-003
111	0.8	5.e-002	5.e-002	5.6566e-003
112	0.75	5.e-002	5.e-002	5.0893e-003
113	0.7	5.e-002	5.e-002	4.537e-003
114	0.65	5.e-002	5.e-002	4.0029e-003
115	0.6	5.e-002	5.e-002	3.4897e-003
116	0.55	5.e-002	5.e-002	3.0006e-003
117	0.5	5.e-002	5.e-002	2.5386e-003
118	0.45	5.e-002	5.e-002	2.1065e-003
119	0.4	5.e-002	5.e-002	1.7075e-003
120	0.35	5.e-002	5.e-002	1.3444e-003
121	0.3	5.e-002	5.e-002	1.0201e-003
122	0.25	5.e-002	5.e-002	7.3765e-004
123	0.2	5.e-002	5.e-002	4.9961e-004
124	0.15	5.e-002	5.e-002	3.0836e-004
125	0.1	5.e-002	5.e-002	1.6459e-004
126	5.e-002	5.e-002	5.e-002	6.667e-005
127	5.e-002	5.e-002	0.	6.4548e-005
128	0.1	5.e-002	0.	1.596e-004
129	0.15	5.e-002	0.	3.0217e-004
130	0.2	5.e-002	0.	4.9323e-004
131	0.25	5.e-002	0.	7.3141e-004
132	0.3	5.e-002	0.	1.0141e-003
133	0.35	5.e-002	0.	1.3387e-003
134	0.4	5.e-002	0.	1.7022e-003
135	0.45	5.e-002	0.	2.1017e-003
136	0.5	5.e-002	0.	2.5341e-003
137	0.55	5.e-002	0.	2.9966e-003
138	0.6	5.e-002	0.	3.4861e-003
139	0.65	5.e-002	0.	3.9997e-003
140	0.7	5.e-002	0.	4.5343e-003
141	0.75	5.e-002	0.	5.087e-003
142	0.8	5.e-002	0.	5.6548e-003
143	0.85	5.e-002	0.	6.2345e-003
144	0.9	5.e-002	0.	6.8235e-003
145	0.95	5.e-002	0.	7.4182e-003
146	1.	5.e-002	0.	8.0247e-003
147	1.	5.e-002	5.e-002	8.0251e-003
148	1.	0.	5.e-002	7.9934e-003
149	1.	0.	0.	7.9933e-003
150	1.	-5.e-002	0.	8.0163e-003
151	1.	-5.e-002	5.e-002	8.0163e-003
152	0.95	-5.e-002	5.e-002	7.4203e-003
153	0.9	-5.e-002	5.e-002	6.8258e-003
154	0.85	-5.e-002	5.e-002	6.2373e-003
155	0.8	-5.e-002	5.e-002	5.6581e-003
156	0.75	-5.e-002	5.e-002	5.0908e-003
157	0.7	-5.e-002	5.e-002	4.5387e-003
158	0.65	-5.e-002	5.e-002	4.0045e-003
159	0.6	-5.e-002	5.e-002	3.4915e-003
160	0.55	-5.e-002	5.e-002	3.0024e-003
161	0.5	-5.e-002	5.e-002	2.5404e-003
162	0.45	-5.e-002	5.e-002	2.1084e-003
163	0.4	-5.e-002	5.e-002	1.7094e-003
164	0.35	-5.e-002	5.e-002	1.3464e-003
165	0.3	-5.e-002	5.e-002	1.0222e-003
166	0.25	-5.e-002	5.e-002	7.3972e-004
167	0.2	-5.e-002	5.e-002	5.0166e-004
168	0.15	-5.e-002	5.e-002	3.1032e-004
169	0.1	-5.e-002	5.e-002	1.6634e-004
170	5.e-002	-5.e-002	5.e-002	6.7633e-005
171	0.95	-5.e-002	0.	7.42e-003
172	0.9	-5.e-002	0.	6.8249e-003
173	0.85	-5.e-002	0.	6.236e-003
174	0.8	-5.e-002	0.	5.6563e-003
175	0.75	-5.e-002	0.	5.0886e-003
176	0.7	-5.e-002	0.	4.536e-003
177	0.65	-5.e-002	0.	4.0014e-003
178	0.6	-5.e-002	0.	3.4879e-003
179	0.55	-5.e-002	0.	2.9985e-003
180	0.5	-5.e-002	0.	2.536e-003
181	0.45	-5.e-002	0.	2.1036e-003
182	0.4	-5.e-002	0.	1.7042e-003
183	0.35	-5.e-002	0.	1.3407e-003
184	0.3	-5.e-002	0.	1.0162e-003
185	0.25	-5.e-002	0.	7.3349e-004
186	0.2	-5.e-002	0.	4.953e-004
187	0.15	-5.e-002	0.	3.0414e-004
188	0.1	-5.e-002	0.	1.6128e-004
189	5.e-002	-5.e-002	0.	6.5234e-005
190	0.925	-8.6736e-019	5.e-002	7.0962e-003
191	0.95	-2.6021e-018	2.5e-002	7.3946e-003
192	0.95	-8.6736e-019	7.5e-002	7.3946e-003
193	0.95	2.5e-002	5.e-002	7.4008e-003
194	0.975	-8.6736e-019	5.e-002	7.6953e-003
195	0.95	-2.5e-002	5.e-002	7.4015e-003
196	0.875	1.7256e-031	5.e-002	6.5023e-003
197	0.9	1.4791e-031	2.5e-002	6.7982e-003
198	0.9	4.9304e-032	7.5e-002	6.7982e-003
199	0.9	2.5e-002	5.e-002	6.8047e-003
200	0.9	-2.5e-002	5.e-002	6.8055e-003
201	0.825	1.7347e-018	5.e-002	5.9158e-003
202	0.85	3.6978e-031	2.5e-002	6.2076e-003
203	0.85	1.2326e-031	7.5e-002	6.2076e-003
204	0.85	2.5e-002	5.e-002	6.2147e-003
205	0.85	-2.5e-002	5.e-002	6.2154e-003
206	0.775	1.7347e-018	5.e-002	5.34e-003
207	0.8	5.2042e-018	2.5e-002	5.626e-003
208	0.8	1.7347e-018	7.5e-002	5.626e-003
209	0.8	2.5e-002	5.e-002	5.6337e-003
210	0.8	-2.5e-002	5.e-002	5.6345e-003
211	0.725	-1.8489e-032	5.e-002	4.7777e-003
212	0.75	-5.5467e-032	2.5e-002	5.0564e-003
213	0.75	-1.8489e-032	7.5e-002	5.0564e-003
214	0.75	2.5e-002	5.e-002	5.0648e-003
215	0.75	-2.5e-002	5.e-002	5.0656e-003
216	0.675	1.2326e-032	5.e-002	4.2319e-003
217	0.7	0.	2.5e-002	4.5019e-003
218	0.7	0.	7.5e-002	4.5019e-003
219	0.7	2.5e-002	5.e-002	4.511e-003
220	0.7	-2.5e-002	5.e-002	4.5118e-003
221	0.625	1.2326e-032	5.e-002	3.7057e-003
222	0.65	3.6978e-032	2.5e-002	3.9654e-003
223	0.65	1.2326e-032	7.5e-002	3.9654e-003
224	0.65	2.5e-002	5.e-002	3.9751e-003
225	0.65	-2.5e-002	5.e-002	3.976e-003
226	0.575	1.2326e-032	5.e-002	3.202e-003
227	0.6	0.	2.5e-002	3.45e-003
228	0.6	0.	7.5e-002	3.45e-003
229	0.6	2.5e-002	5.e-002	3.4604e-003
230	0.6	-2.5e-002	5.e-002	3.4612e-003
231	0.525	-1.7347e-018	5.e-002	2.7239e-003
232	0.55	3.6978e-032	2.5e-002	2.9586e-003
233	0.55	1.2326e-032	7.5e-002	2.9586e-003
234	0.55	2.5e-002	5.e-002	2.9696e-003
235	0.55	-2.5e-002	5.e-002	2.9705e-003
236	0.475	-3.4694e-018	5.e-002	2.2743e-003
237	0.5	-5.2042e-018	2.5e-002	2.4942e-003
238	0.5	-1.7347e-018	7.5e-002	2.4942e-003
239	0.5	2.5e-002	5.e-002	2.506e-003
240	0.5	-2.5e-002	5.e-002	2.5069e-003
241	0.425	-1.7347e-018	5.e-002	1.8563e-003
242	0.45	-5.2042e-018	2.5e-002	2.0599e-003
243	0.45	-1.7347e-018	7.5e-002	2.0599e-003
244	0.45	2.5e-002	5.e-002	2.0723e-003
245	0.45	-2.5e-002	5.e-002	2.0733e-003
246	0.375	2.7733e-032	5.e-002	1.4728e-003
247	0.4	8.32e-032	2.5e-002	1.6587e-003
248	0.4	2.7733e-032	7.5e-002	1.6587e-003
249	0.4	2.5e-002	5.e-002	1.6717e-003
250	0.4	-2.5e-002	5.e-002	1.6727e-003
251	0.325	0.	5.e-002	1.1269e-003
252	0.35	0.	2.5e-002	1.2935e-003
253	0.35	0.	7.5e-002	1.2935e-003
254	0.35	2.5e-002	5.e-002	1.3072e-003
255	0.35	-2.5e-002	5.e-002	1.3082e-003
256	0.275	-3.0815e-033	5.e-002	8.2147e-004
257	0.3	0.	2.5e-002	9.6734e-004
258	0.3	0.	7.5e-002	9.6734e-004
259	0.3	2.5e-002	5.e-002	9.8164e-004
260	0.3	-2.5e-002	5.e-002	9.827e-004
261	0.225	-8.6736e-019	5.e-002	5.5962e-004
262	0.25	-9.2445e-033	2.5e-002	6.8324e-004
263	0.25	-3.0815e-033	7.5e-002	6.8324e-004
264	0.25	2.5e-002	5.e-002	6.9812e-004
265	0.25	-2.5e-002	5.e-002	6.9922e-004
266	0.175	-8.6736e-019	5.e-002	3.4433e-004
267	0.2	-2.6021e-018	2.5e-002	4.4416e-004
268	0.2	-8.6736e-019	7.5e-002	4.4416e-004
269	0.2	2.5e-002	5.e-002	4.5958e-004
270	0.2	-2.5e-002	5.e-002	4.6071e-004
271	0.125	-8.6736e-019	5.e-002	1.7853e-004
272	0.15	1.3867e-032	2.5e-002	2.5321e-004
273	0.15	4.6222e-033	7.5e-002	2.5321e-004
274	0.15	2.5e-002	5.e-002	2.6892e-004
275	0.15	-2.5e-002	5.e-002	2.7007e-004
276	7.5e-002	-8.6736e-019	5.e-002	6.5026e-005
277	0.1	-2.6021e-018	2.5e-002	1.1314e-004
278	0.1	-8.6736e-019	7.5e-002	1.1314e-004
279	0.1	2.5e-002	5.e-002	1.289e-004
280	0.1	-2.5e-002	5.e-002	1.3003e-004
281	5.e-002	-4.6222e-033	2.5e-002	2.8466e-005
282	5.e-002	-1.5407e-033	7.5e-002	2.8466e-005
283	2.5e-002	-1.5407e-033	5.e-002	5.6245e-006
284	5.e-002	2.5e-002	5.e-002	4.0164e-005
285	5.e-002	-2.5e-002	5.e-002	4.129e-005
286	7.5e-002	-1.7347e-018	0.	5.728e-005
287	2.5e-002	-3.0815e-033	0.	1.2488e-006
288	5.e-002	2.5e-002	0.	3.6705e-005
289	5.e-002	-2.5e-002	0.	3.7639e-005
290	0.125	-1.7347e-018	0.	1.7068e-004
291	0.1	2.5e-002	0.	1.2191e-004
292	0.1	-2.5e-002	0.	1.2303e-004
293	0.175	-1.7347e-018	0.	3.3693e-004
294	0.15	2.5e-002	0.	2.6173e-004
295	0.15	-2.5e-002	0.	2.6289e-004
296	0.225	-1.7347e-018	0.	5.5267e-004
297	0.2	2.5e-002	0.	4.5261e-004
298	0.2	-2.5e-002	0.	4.5374e-004
299	0.275	-6.163e-033	0.	8.1497e-004
300	0.25	2.5e-002	0.	6.915e-004
301	0.25	-2.5e-002	0.	6.9261e-004
302	0.325	0.	0.	1.1208e-003
303	0.3	2.5e-002	0.	9.7542e-004
304	0.3	-2.5e-002	0.	9.765e-004
305	0.375	5.5467e-032	0.	1.4672e-003
306	0.35	2.5e-002	0.	1.3014e-003
307	0.35	-2.5e-002	0.	1.3024e-003
308	0.425	-3.4694e-018	0.	1.8511e-003
309	0.4	2.5e-002	0.	1.6664e-003
310	0.4	-2.5e-002	0.	1.6674e-003
311	0.475	-6.9389e-018	0.	2.2696e-003
312	0.45	2.5e-002	0.	2.0674e-003
313	0.45	-2.5e-002	0.	2.0684e-003
314	0.525	-3.4694e-018	0.	2.7196e-003
315	0.5	2.5e-002	0.	2.5015e-003
316	0.5	-2.5e-002	0.	2.5024e-003
317	0.575	2.4652e-032	0.	3.1982e-003
318	0.55	2.5e-002	0.	2.9656e-003
319	0.55	-2.5e-002	0.	2.9665e-003
320	0.625	2.4652e-032	0.	3.7023e-003
321	0.6	2.5e-002	0.	3.4568e-003
322	0.6	-2.5e-002	0.	3.4577e-003
323	0.675	2.4652e-032	0.	4.229e-003
324	0.65	2.5e-002	0.	3.972e-003
325	0.65	-2.5e-002	0.	3.9729e-003
326	0.725	-3.6978e-032	0.	4.7752e-003
327	0.7	2.5e-002	0.	4.5083e-003
328	0.7	-2.5e-002	0.	4.5091e-003
329	0.775	3.4694e-018	0.	5.338e-003
330	0.75	2.5e-002	0.	5.0626e-003
331	0.75	-2.5e-002	0.	5.0634e-003
332	0.825	3.4694e-018	0.	5.9143e-003
333	0.8	2.5e-002	0.	5.632e-003
334	0.8	-2.5e-002	0.	5.6327e-003
335	0.875	3.4513e-031	0.	6.5012e-003
336	0.85	2.5e-002	0.	6.2134e-003
337	0.85	-2.5e-002	0.	6.2141e-003
338	0.925	-1.7347e-018	0.	7.0955e-003
339	0.9	2.5e-002	0.	6.8038e-003
340	0.9	-2.5e-002	0.	6.8046e-003
341	0.95	2.5e-002	0.	7.4002e-003
342	0.975	-1.7347e-018	0.	7.6953e-003
343	0.95	-2.5e-002	0.	7.4012e-003
344	0.925	0.	0.1	7.0955e-003
345	0.95	-2.5e-002	0.1	7.4012e-003
346	0.975	0.	0.1	7.6953e-003
347	0.95	2.5e-002	0.1	7.4002e-003
348	0.875	0.	0.1	6.5012e-003
349	0.9	-2.5e-002	0.1	6.8046e-003
350	0.9	2.5e-002	0.1	6.8038e-003
351	0.825	0.	0.1	5.9143e-003
352	0.85	-2.5e-002	0.1	6.2141e-003
353	0.85	2.5e-002	0.1	6.2134e-003
354	0.775	0.	0.1	5.338e-003
355	0.8	-2.5e-002	0.1	5.6327e-003
356	0.8	2.5e-002	0.1	5.632e-003
357	0.725	0.	0.1	4.7752e-003
358	0.75	-2.5e-002	0.1	5.0634e-003
359	0.75	2.5e-002	0.1	5.0626e-003
360	0.675	0.	0.1	4.229e-003
361	0.7	-2.5e-002	0.1	4.5091e-003
362	0.7	2.5e-002	0.1	4.5083e-003
363	0.625	0.	0.1	3.7023e-003
364	0.65	-2.5e-002	0.1	3.9729e-003
365	0.65	2.5e-002	0.1	3.972e-003
366	0.575	0.	0.1	3.1982e-003
367	0.6	-2.5e-002	0.1	3.4577e-003
368	0.6	2.5e-002	0.1	3.4568e-003
369	0.525	0.	0.1	2.7196e-003
370	0.55	-2.5e-002	0.1	2.9665e-003
371	0.55	2.5e-002	0.1	2.9656e-003
372	0.475	0.	0.1	2.2696e-003
373	0.5	-2.5e-002	0.1	2.5024e-003
374	0.5	2.5e-002	0.1	2.5015e-003
375	0.425	0.	0.1	1.8511e-003
376	0.45	-2.5e-002	0.1	2.0684e-003
377	0.45	2.5e-002	0.1	2.0674e-003
378	0.375	0.	0.1	1.4672e-003
379	0.4	-2.5e-002	0.1	1.6674e-003
380	0.4	2.5e-002	0.1	1.6664e-003
381	0.325	0.	0.1	1.1208e-003
382	0.35	-2.5e-002	0.1	1.3024e-003
383	0.35	2.5e-002	0.1	1.3014e-003
384	0.275	0.	0.1	8.1497e-004
385	0.3	-2.5e-002	0.1	9.765e-004
386	0.3	2.5e-002	0.1	9.7542e-004
387	0.225	0.	0.1	5.5267e-004
388	0.25	-2.5e-002	0.1	6.9261e-004
389	0.25	2.5e-002	0.1	6.915e-004
390	0.175	0.	0.1	3.3693e-004
391	0.2	-2.5e-002	0.1	4.5374e-004
392	0.2	2.5e-002	0.1	4.5261e-004
393	0.125	0.	0.1	1.7068e-004
394	0.15	-2.5e-002	0.1	2.6289e-004
395	0.15	2.5e-002	0.1	2.6173e-004
396	7.5e-002	0.	0.1	5.728e-005
397	0.1	-2.5e-002	0.1	1.2303e-004
398	0.1	2.5e-002	0.1	1.2191e-004
399	5.e-002	-2.5e-002	0.1	3.7639e-005
400	5.e-002	2.5e-002	0.1	3.6705e-005
401	2.5e-002	0.	0.1	1.2488e-006
402	7.5e-002	-5.e-002	0.1	1.0816e-004
403	2.5e-002	-5.e-002	0.1	3.2018e-005
404	5.e-002	-5.e-002	7.5e-002	6.6287e-005
405	0.125	-5.e-002	0.1	2.2671e-004
406	0.1	-5.e-002	7.5e-002	1.6525e-004
407	0.175	-5.e-002	0.1	3.9372e-004
408	0.15	-5.e-002	7.5e-002	3.0877e-004
409	0.225	-5.e-002	0.1	6.0867e-004
410	0.2	-5.e-002	7.5e-002	5.001e-004
411	0.275	-5.e-002	0.1	8.6945e-004
412	0.25	-5.e-002	7.5e-002	7.3818e-004
413	0.325	-5.e-002	0.1	1.1734e-003
414	0.3	-5.e-002	7.5e-002	1.0207e-003
415	0.375	-5.e-002	0.1	1.5178e-003
416	0.35	-5.e-002	7.5e-002	1.345e-003
417	0.425	-5.e-002	0.1	1.8996e-003
418	0.4	-5.e-002	7.5e-002	1.7081e-003
419	0.475	-5.e-002	0.1	2.3159e-003
420	0.45	-5.e-002	7.5e-002	2.1072e-003
421	0.525	-5.e-002	0.1	2.7637e-003
422	0.5	-5.e-002	7.5e-002	2.5393e-003
423	0.575	-5.e-002	0.1	3.24e-003
424	0.55	-5.e-002	7.5e-002	3.0015e-003
425	0.625	-5.e-002	0.1	3.7419e-003
426	0.6	-5.e-002	7.5e-002	3.4906e-003
427	0.675	-5.e-002	0.1	4.2663e-003
428	0.65	-5.e-002	7.5e-002	4.0038e-003
429	0.725	-5.e-002	0.1	4.8102e-003
430	0.7	-5.e-002	7.5e-002	4.538e-003
431	0.775	-5.e-002	0.1	5.3707e-003
432	0.75	-5.e-002	7.5e-002	5.0903e-003
433	0.825	-5.e-002	0.1	5.9448e-003
434	0.8	-5.e-002	7.5e-002	5.6576e-003
435	0.875	-5.e-002	0.1	6.5295e-003
436	0.85	-5.e-002	7.5e-002	6.237e-003
437	0.925	-5.e-002	0.1	7.1218e-003
438	0.9	-5.e-002	7.5e-002	6.8256e-003
439	0.975	-5.e-002	0.1	7.7179e-003
440	0.95	-5.e-002	7.5e-002	7.4202e-003
441	1.	-2.5e-002	0.1	7.9989e-003
442	1.	-5.e-002	7.5e-002	8.0163e-003
443	1.	2.5e-002	0.1	8.0025e-003
444	1.	0.	7.5e-002	7.9931e-003
445	0.975	5.e-002	0.1	7.7172e-003
446	1.	5.e-002	7.5e-002	8.0252e-003
447	0.925	5.e-002	0.1	7.1202e-003
448	0.95	5.e-002	7.5e-002	7.4189e-003
449	0.875	5.e-002	0.1	6.528e-003
450	0.9	5.e-002	7.5e-002	6.8242e-003
451	0.825	5.e-002	0.1	5.9433e-003
452	0.85	5.e-002	7.5e-002	6.2356e-003
453	0.775	5.e-002	0.1	5.3692e-003
454	0.8	5.e-002	7.5e-002	5.6561e-003
455	0.725	5.e-002	0.1	4.8086e-003
456	0.75	5.e-002	7.5e-002	5.0887e-003
457	0.675	5.e-002	0.1	4.2646e-003
458	0.7	5.e-002	7.5e-002	4.5364e-003
459	0.625	5.e-002	0.1	3.7401e-003
460	0.65	5.e-002	7.5e-002	4.0021e-003
461	0.575	5.e-002	0.1	3.2382e-003
462	0.6	5.e-002	7.5e-002	3.4888e-003
463	0.525	5.e-002	0.1	2.7618e-003
464	0.55	5.e-002	7.5e-002	2.9996e-003
465	0.475	5.e-002	0.1	2.314e-003
466	0.5	5.e-002	7.5e-002	2.5375e-003
467	0.425	5.e-002	0.1	1.8976e-003
468	0.45	5.e-002	7.5e-002	2.1053e-003
469	0.375	5.e-002	0.1	1.5158e-003
470	0.4	5.e-002	7.5e-002	1.7062e-003
471	0.325	5.e-002	0.1	1.1714e-003
472	0.35	5.e-002	7.5e-002	1.343e-003
473	0.275	5.e-002	0.1	8.6737e-004
474	0.3	5.e-002	7.5e-002	1.0187e-003
475	0.225	5.e-002	0.1	6.0659e-004
476	0.25	5.e-002	7.5e-002	7.3611e-004
477	0.175	5.e-002	0.1	3.9169e-004
478	0.2	5.e-002	7.5e-002	4.9804e-004
479	0.125	5.e-002	0.1	2.2485e-004
480	0.15	5.e-002	7.5e-002	3.0681e-004
481	7.5e-002	5.e-002	0.1	1.0694e-004
482	0.1	5.e-002	7.5e-002	1.6354e-004
483	2.5e-002	5.e-002	0.1	3.2469e-005
484	5.e-002	5.e-002	7.5e-002	6.5323e-005
485	0.	2.5e-002	0.1	0.
486	0.	5.e-002	7.5e-002	0.
487	0.	-2.5e-002	0.1	0.
488	0.	0.	7.5e-002	0.
489	0.	-5.e-002	7.5e-002	0.
490	0.	0.	2.5e-002	0.
491	0.	-2.5e-002	5.e-002	0.
492	0.	2.5e-002	5.e-002	0.
493	0.	-2.5e-002	0.	0.
494	0.	2.5e-002	0.	0.
495	0.	-5.e-002	2.5e-002	0.
496	2.5e-002	-5.e-002	0.	3.2018e-005
497	2.5e-002	-5.e-002	5.e-002	3.0214e-005
498	0.	5.e-002	2.5e-002	0.
499	2.5e-002	5.e-002	0.	3.2469e-005
500	2.5e-002	5.e-002	5.e-002	2.9871e-005
501	0.925	5.e-002	5.e-002	7.121e-003
502	0.95	5.e-002	2.5e-002	7.4189e-003
503	0.975	5.e-002	5.e-002	7.7178e-003
504	0.875	5.e-002	5.e-002	6.5292e-003
505	0.9	5.e-002	2.5e-002	6.8242e-003
506	0.825	5.e-002	5.e-002	5.9449e-003
507	0.85	5.e-002	2.5e-002	6.2356e-003
508	0.775	5.e-002	5.e-002	5.3712e-003
509	0.8	5.e-002	2.5e-002	5.6561e-003
510	0.725	5.e-002	5.e-002	4.8111e-003
511	0.75	5.e-002	2.5e-002	5.0887e-003
512	0.675	5.e-002	5.e-002	4.2675e-003
513	0.7	5.e-002	2.5e-002	4.5364e-003
514	0.625	5.e-002	5.e-002	3.7435e-003
515	0.65	5.e-002	2.5e-002	4.0021e-003
516	0.575	5.e-002	5.e-002	3.242e-003
517	0.6	5.e-002	2.5e-002	3.4888e-003
518	0.525	5.e-002	5.e-002	2.766e-003
519	0.55	5.e-002	2.5e-002	2.9996e-003
520	0.475	5.e-002	5.e-002	2.3186e-003
521	0.5	5.e-002	2.5e-002	2.5375e-003
522	0.425	5.e-002	5.e-002	1.9027e-003
523	0.45	5.e-002	2.5e-002	2.1053e-003
524	0.375	5.e-002	5.e-002	1.5212e-003
525	0.4	5.e-002	2.5e-002	1.7062e-003
526	0.325	5.e-002	5.e-002	1.1772e-003
527	0.35	5.e-002	2.5e-002	1.343e-003
528	0.275	5.e-002	5.e-002	8.735e-004
529	0.3	5.e-002	2.5e-002	1.0187e-003
530	0.225	5.e-002	5.e-002	6.1292e-004
531	0.25	5.e-002	2.5e-002	7.3611e-004
532	0.175	5.e-002	5.e-002	3.9802e-004
533	0.2	5.e-002	2.5e-002	4.9804e-004
534	0.125	5.e-002	5.e-002	2.306e-004
535	0.15	5.e-002	2.5e-002	3.0681e-004
536	7.5e-002	5.e-002	5.e-002	1.1072e-004
537	0.1	5.e-002	2.5e-002	1.6354e-004
538	5.e-002	5.e-002	2.5e-002	6.5323e-005
539	7.5e-002	5.e-002	0.	1.0694e-004
540	0.125	5.e-002	0.	2.2485e-004
541	0.175	5.e-002	0.	3.9169e-004
542	0.225	5.e-002	0.	6.0659e-004
543	0.275	5.e-002	0.	8.6737e-004
544	0.325	5.e-002	0.	1.1714e-003
545	0.375	5.e-002	0.	1.5158e-003
546	0.425	5.e-002	0.	1.8976e-003
547	0.475	5.e-002	0.	2.314e-003
548	0.525	5.e-002	0.	2.7618e-003
549	0.575	5.e-002	0.	3.2382e-003
550	0.625	5.e-002	0.	3.7401e-003
551	0.675	5.e-002	0.	4.2646e-003
552	0.725	5.e-002	0.	4.8086e-003
553	0.775	5.e-002	0.	5.3692e-003
554	0.825	5.e-002	0.	5.9433e-003
555	0.875	5.e-002	0.	6.528e-003
556	0.925	5.e-002	0.	7.1202e-003
557	0.975	5.e-002	0.	7.7172e-003
558	1.	5.e-002	2.5e-002	8.0252e-003
559	1.	2.5e-002	0.	8.0025e-003
560	1.	2.5e-002	5.e-002	8.0028e-003
561	1.	0.	2.5e-002	7.9931e-003
562	1.	-2.5e-002	5.e-002	7.9989e-003
563	1.	-2.5e-002	0.	7.9989e-003
564	1.	-5.e-002	2.5e-002	8.0163e-003
565	0.975	-5.e-002	0.	7.7179e-003
566	0.975	-5.e-002	5.e-002	7.7178e-003
567	0.925	-5.e-002	5.e-002	7.1224e-003
568	0.95	-5.e-002	2.5e-002	7.4202e-003
569	0.875	-5.e-002	5.e-002	6.5306e-003
570	0.9	-5.e-002	2.5e-002	6.8256e-003
571	0.825	-5.e-002	5.e-002	5.9464e-003
572	0.85	-5.e-002	2.5e-002	6.237e-003
